,t,x,y,energy,sight
0,0.78,0.7587832243328965,0.22485184731514468,49.966470789113856,98.17375126495944
1,0.814,0.7575165454037431,0.2236271024582676,49.93294157822771,98.17375126495944
2,0.85,0.7561753559493456,0.22233031378628015,49.89744006081886,98.17375126495944
3,0.884,0.7549086770201924,0.2211055689294031,49.863910849932715,98.17375126495944
4,0.918,0.753641998091039,0.21988082407252607,49.83038163904657,98.17375126495944
5,0.954,0.7523008086366415,0.2185840354005386,49.79488012163772,98.17375126495944
6,0.988,0.7510341297074883,0.21735929054366157,49.761350910751574,98.17375126495944
7,1.024,0.7496929402530907,0.2160625018716741,49.72584939334272,98.17375126495944
8,1.058,0.7484262613239374,0.21483775701479707,49.69232018245658,98.17375126495944
9,1.092,0.7471595823947841,0.21361301215792,49.65879097157043,98.17375126495944
10,1.128,0.7458183929403865,0.21231622348593254,49.62328945416158,98.17375126495944
11,1.162,0.7445517140112333,0.2110914786290555,49.589760243275435,98.17375126495944
12,1.198,0.7432105245568358,0.20979468995706804,49.55425872586658,98.17375126495944
13,1.232,0.7419438456276825,0.208569945100191,49.52072951498044,98.17375126495944
14,1.27,0.7405281456480406,0.20720111261309312,49.48325569104887,98.17375126495944
15,1.304,0.7392614667188873,0.20597636775621608,49.449726480162724,98.17375126495944
16,1.34,0.7379202772644897,0.20467957908422862,49.41422496275387,98.17375126495944
17,1.374,0.7366535983353365,0.20345483422735158,49.38069575186773,98.17375126495944
18,1.412,0.7352378983556946,0.2020860017402537,49.343221927936156,98.17375126495944
19,1.448,0.7338967089012971,0.20078921306826625,49.3077204105273,98.17375126495944
20,1.486,0.7324810089216551,0.19942038058116837,49.27024658659573,98.17375126495944
21,1.528,0.7309162878915247,0.1979074604638497,49.228828149618735,98.17375126495944
22,1.568,0.7294260773866384,0.1964665841616414,49.189382019164455,98.17375126495944
23,1.612,0.7277868458312636,0.1948816202292123,49.14599127566474,98.17375126495944
24,1.652,0.7262966353263774,0.193440743927004,49.10654514521046,98.17375126495944
25,1.694,0.724731914296247,0.19192782380968532,49.065126708233464,98.17375126495944
26,1.734,0.7232417037913608,0.19048694750747702,49.025680577779184,98.17375126495944
27,1.774,0.7217514932864746,0.18904607120526876,48.986234447324904,98.17375126495944
28,1.814,0.7202612827815884,0.18760519490306046,48.946788316870624,98.17375126495944
29,1.854,0.7187710722767022,0.1861643186008522,48.907342186416344,98.17375126495944
30,1.904,0.7169083091455944,0.18436322322309184,48.858034523348486,98.17375126495944
31,1.952,0.7151200565397311,0.1826341716604419,48.810699166803346,98.17375126495944
32,1.994,0.7135553355096006,0.18112125154312322,48.76928072982635,98.17375126495944
33,2.036,0.7119906144794701,0.1796083314258045,48.72786229284935,98.17375126495944
34,2.078,0.7104258934493396,0.17809541130848583,48.686443855872355,98.17375126495944
35,2.122,0.7087866618939648,0.17651044737605673,48.64305311237264,98.17375126495944
36,2.162,0.7072964513890787,0.17506957107384843,48.60360698191836,98.17375126495944
37,2.206,0.7056572198337039,0.17348460714141933,48.56021623841865,98.17375126495944
38,2.25,0.7040251400177886,0.17189623844567353,48.516843176033795,98.17375126495944
39,2.29,0.7025053076260768,0.17048683500842296,48.47739788435099,98.17375126495944
40,2.332,0.7009316790059764,0.16898387909271834,48.43598252882581,98.17375126495944
41,2.374,0.6993240130207743,0.167527254230267,48.394609645382644,98.17375126495944
42,2.414,0.6978206958854923,0.16609539595651107,48.35514295484746,98.17375126495944
43,2.456,0.6962122086072053,0.16463991108770526,48.31377107209098,98.17375126495944
44,2.498,0.6946133258827738,0.16317421474144056,48.27240062884417,98.17375126495944
45,2.544,0.6928228779570699,0.16160055004426624,48.22703819933887,98.17375126495944
46,2.586,0.6911982389585047,0.16014484629350237,48.185588560635,98.17375126495944
47,2.628,0.6895420018515169,0.15872982200419858,48.144158167124175,98.17375126495944
48,2.668,0.6880069237328861,0.15734012188343444,48.10472612402215,98.17375126495944
49,2.712,0.6863341755275416,0.15579338760521913,48.0613476194939,98.17375126495944
50,2.752,0.6847701211551013,0.15442099094749423,48.021850817071105,98.17375126495944
51,2.794,0.6830896622916308,0.15301994756199816,47.980359667926635,98.17375126495944
52,2.836,0.6814465488792721,0.15156749376613785,47.93883553344949,98.17375126495944
53,2.878,0.6797647317749077,0.15016356069251036,47.89732586211664,98.17375126495944
54,2.92,0.678067053680499,0.14877688195370473,47.855808229519994,98.17375126495944
55,2.962,0.6763716945457453,0.1473706370061805,47.81422247326851,98.17375126495944
56,3.004,0.6746335933695098,0.1460128869022674,47.772618259038154,98.17375126495944
57,3.046,0.672932722064699,0.14462258917146303,47.731070145878824,98.17375126495944
58,3.088,0.6712048869281894,0.14325163692655418,47.68946528852646,98.17375126495944
59,3.128,0.6695764314660977,0.1419162806224188,47.64980751379381,98.17375126495944
60,3.17,0.667895245434904,0.1404955104328609,47.608231629802475,98.17375126495944
61,3.212,0.6662006109653245,0.13907594051884536,47.56659483203642,98.17375126495944
62,3.254,0.6645305553094116,0.13764215934786084,47.52501918074622,98.17375126495944
63,3.298,0.6627818084843138,0.13613060141413721,47.481428098500565,98.17375126495944
64,3.342,0.6609841082879374,0.1346704884289133,47.43780834123997,98.17375126495944
65,3.384,0.6592595953998807,0.13328551704566222,47.396164125755554,98.17375126495944
66,3.428,0.6574922950964138,0.13180354126784574,47.35260536332696,98.17375126495944
67,3.47,0.6558404478607972,0.1303511935081998,47.31103974849306,98.17375126495944
68,3.51,0.6542665000616138,0.12898128790486288,47.27150575947785,98.17375126495944
69,3.556,0.65240759261168,0.12745765632318778,47.22601650563161,98.17375126495944
70,3.598,0.6507253481329685,0.1260378908406749,47.184439595138194,98.17375126495944
71,3.642,0.6489944306373996,0.12452046733210989,47.140909932288636,98.17375126495944
72,3.684,0.6473048768647798,0.1231275599752629,47.09940720666155,98.17375126495944
73,3.728,0.6455139451928533,0.12168866015187826,47.055906460619745,98.17375126495944
74,3.774,0.643600744553421,0.1202397590104219,47.010440308632944,98.17375126495944
75,3.822,0.6416062430196131,0.11872748277169187,46.963005499546625,98.17375126495944
76,3.864,0.6398569806152382,0.11739905301108451,46.92145920208014,98.17375126495944
77,3.904,0.6381912241175115,0.11614323795578321,46.881928490546606,98.17375126495944
78,3.95,0.6363162664599007,0.11466232946291444,46.83653061908899,98.17375126495944
79,3.992,0.634586522254801,0.1133457763460098,46.79512976549347,98.17375126495944
80,4.034,0.6328786034573214,0.11200163610855367,46.753731307970156,98.17375126495944
81,4.076,0.6311782394512437,0.11063062422639598,46.7122635114243,98.17375126495944
82,4.12,0.6293638251148448,0.10923328572759279,46.66880910322248,98.17375126495944
83,4.16,0.6277362781401139,0.10793015565309531,46.629285693838604,98.17375126495944
84,4.202,0.6259948778061438,0.10660813185627831,46.58780426338678,98.17375126495944
85,4.242,0.624330502584703,0.10535422361141104,46.54828795647217,98.17375126495944
86,4.284,0.6225900546520384,0.10403115392400133,46.506807330500855,98.17375126495944
87,4.326,0.6208205402200181,0.10274866180230761,46.46533212862865,98.17375126495944
88,4.368,0.6190792253139267,0.10142818689237784,46.42385712557179,98.17375126495944
89,4.41,0.6173103820423729,0.10016096611265438,46.382442547249305,98.17375126495944
90,4.452,0.6155181358585581,0.09890995019758604,46.3409655593298,98.17375126495944
91,4.494,0.6137715569739596,0.09761207404276667,46.29955044380904,98.17375126495944
92,4.536,0.6120405255351739,0.09631017990899743,46.25819962662009,98.17375126495944
93,4.578,0.6103386649824634,0.09497137919227056,46.21685277161915,98.17375126495944
94,4.62,0.6086766878668862,0.09358413421487069,46.17550902060497,98.17375126495944
95,4.662,0.6070446541738023,0.09216763517109271,46.134189848061396,98.17375126495944
96,4.704,0.6053728690831053,0.09078816545227902,46.09282957293594,98.17375126495944
97,4.744,0.6037739955532342,0.08947218229673126,46.05339679274639,98.17375126495944
98,4.79,0.6019347251302352,0.08794113676553356,46.00797421735535,98.17375126495944
99,4.83,0.6003388333597399,0.08659427605196375,45.96842957219396,98.17375126495944
100,4.87,0.5987491516717892,0.08523762569483226,45.92887468904374,98.17375126495944
101,4.914,0.597008933457774,0.08374889434005696,45.885420244211986,98.17375126495944
102,4.956,0.5953293322007914,0.08235530652181625,45.84396382678219,98.17375126495944
103,4.996,0.59371266119374,0.08105767183359273,45.8045167252539,98.17375126495944
104,5.038,0.5920527378332391,0.07965311262116923,45.763111743033306,98.17375126495944
105,5.078,0.5904548824875504,0.07833140746350131,45.723660682223,98.17375126495944
106,5.12,0.5887486441605304,0.07699477066169523,45.68230034055076,98.17375126495944
107,5.16,0.5870826513040835,0.0757603902109023,45.64285054355477,98.17375126495944
108,5.202,0.5853120070971258,0.07450857562528493,45.60148374640738,98.17375126495944
109,5.244,0.5835562307893508,0.07322325960615803,45.56006897295011,98.17375126495944
110,5.288,0.5817297396782986,0.07184472694080138,45.51662607213539,98.17375126495944
111,5.33,0.5799876116274093,0.07051595840995238,45.47511479546917,98.17375126495944
112,5.372,0.578249796780709,0.06918221786082936,45.43360610654608,98.17375126495944
113,5.416,0.576425543119076,0.06779584506388328,45.39014432704728,98.17375126495944
114,5.458,0.5746987768849581,0.06644999054271249,45.348644139841035,98.17375126495944
115,5.5,0.5729671391228673,0.06510554107291804,45.307124865202645,98.17375126495944
116,5.548,0.5709977290150858,0.06356499678518822,45.2597068932935,98.17375126495944
117,5.594,0.5690814648710617,0.06211740384063956,45.21423015476997,98.17375126495944
118,5.638,0.5672056574848484,0.060778945140559204,45.170684547587165,98.17375126495944
119,5.682,0.5653027573808831,0.059459855070831,45.12706842262928,98.17375126495944
120,5.728,0.5633094991025343,0.05808239520901285,45.08145520618376,98.17375126495944
121,5.772,0.5614189989220314,0.05673078274029204,45.03778414983247,98.17375126495944
122,5.818,0.5594229077903057,0.05534032461645714,44.99210861542734,98.17375126495944
123,5.86,0.5576390465101998,0.05402763502203025,44.95044527975193,98.17375126495944
124,5.906,0.555702677082711,0.05255560229922862,44.90477151695738,98.17375126495944
125,5.952,0.5537212050953739,0.05112643135270219,44.8590290294877,98.17375126495944
126,5.996,0.5518255351558542,0.04974266308252847,44.815210636488764,98.17375126495944
127,6.04,0.5499095432248764,0.048398037483757005,44.771432295038245,98.17375126495944
128,6.086,0.5479084791847597,0.047005133217595696,44.72572169626432,98.17375126495944
129,6.13,0.5459867646320565,0.045695498257369016,44.68204061445898,98.17375126495944
130,6.178,0.5438674253662816,0.04430557228560249,44.634404462934604,98.17375126495944
131,6.222,0.5419092363793575,0.04304852119023008,44.590714369497256,98.17375126495944
132,6.264,0.540051847907814,0.04184927953876453,44.54907596831532,98.17375126495944
133,6.31,0.5380235794205713,0.04052926682522674,44.50348147473859,98.17375126495944
134,6.352,0.5361808369006071,0.03931673299022838,44.461875146367106,98.17375126495944
135,6.398,0.5341326227787195,0.038046094856934956,44.416342401851104,98.17375126495944
136,6.442,0.5322125996046515,0.03678071917052297,44.372828017734314,98.17375126495944
137,6.488,0.530222072873043,0.03541916589178945,44.32728688277202,98.17375126495944
138,6.536,0.5281573004290989,0.03397882818901971,44.27975921665991,98.17375126495944
139,6.59,0.5257779499576507,0.032419569466451956,44.22621027310298,98.17375126495944
140,6.636,0.5237344377661419,0.03109929537212523,44.180533012722876,98.17375126495944
141,6.682,0.5216657535350213,0.029799184515288284,44.134789239260975,98.17375126495944
142,6.726,0.5196796186324286,0.028547291221009748,44.09096595293226,98.17375126495944
143,6.77,0.517712242851312,0.027259409797260353,44.04711919038879,98.17375126495944
144,6.814,0.5157607166370893,0.025959582475708592,44.00331494778594,98.17375126495944
145,6.858,0.5138465412033238,0.02460117431237038,43.95949524432088,98.17375126495944
146,6.902,0.5119580915070994,0.02322050986592933,43.915725882584645,98.17375126495944
147,6.948,0.5099710927231866,0.021788068921469454,43.869942464254194,98.17375126495944
148,6.992,0.5080528075579671,0.02044219106934652,43.82614750533233,98.17375126495944
149,7.036,0.5061507820983474,0.019079761728372703,43.78237617668302,98.17375126495944
150,7.08,0.5042432812216281,0.017721086097453542,43.73859029627358,98.17375126495944
151,7.124,0.5023170717114587,0.016384156275430807,43.69478651933076,98.17375126495944
152,7.166,0.5004567857513409,0.015134918731773958,43.652956643794674,98.17375126495944
153,7.214,0.4983135827429034,0.01751393565685954,43.605161403049955,98.17375126495944
154,7.26,0.4962723022667288,0.018884735574717516,43.559318178433706,98.17375126495944
155,7.306,0.4942234334031451,0.020236281095233347,43.513502802232544,98.17375126495944
156,7.35,0.4922972863331749,0.02158078711778331,43.46967165301734,98.17375126495944
157,7.394,0.4904068464655548,0.022975790662752273,43.425837699377055,98.17375126495944
158,7.44,0.48843429486673606,0.02443271950698007,43.38003658914511,98.17375126495944
159,7.484,0.48652727539598095,0.02578237030062568,43.336286658949184,98.17375126495944
160,7.53,0.48451715118084043,0.027168651798229644,43.290552536951175,98.17375126495944
161,7.578,0.48239334348620055,0.028583383396194206,43.24280498845815,98.17375126495944
162,7.626,0.48027785964841707,0.030002587306649408,43.195085820976246,98.17375126495944
163,7.674,0.4781902787848334,0.031470288766220815,43.14733812599556,98.17375126495944
164,7.72,0.4762212914464504,0.03292349837351878,43.10156950548715,98.17375126495944
165,7.768,0.4742023603764863,0.034496291692504955,43.05377470392325,98.17375126495944
166,7.814,0.4722231989679024,0.03594126635955206,43.00798478054671,98.17375126495944
167,7.858,0.470339228425241,0.037328073218475734,42.964215279693505,98.17375126495944
168,7.904,0.4683577519798603,0.038770074680697084,42.918424591826096,98.17375126495944
169,7.95,0.46639924920050013,0.0402416714474046,42.87263950277341,98.17375126495944
170,7.994,0.46452521591473717,0.04164529429851875,42.82885690373298,98.17375126495944
171,8.038,0.46265618041474454,0.04303653017785159,42.785147364831055,98.17375126495944
172,8.084,0.46068996800272044,0.04446281665084915,42.73949482718397,98.17375126495944
173,8.128,0.45847090242746413,0.04515137875918947,42.69582718247806,98.17375126495944
174,8.172,0.45625183685220777,0.045839940867529794,42.65215953777216,98.17375126495944
175,8.216,0.4540327712769514,0.04652850297587012,42.60849189306625,98.17375126495944
176,8.258,0.45191457231875215,0.04718576680655861,42.56680914130152,98.17375126495944
177,8.302,0.4496955067434958,0.047874328914898935,42.52314149659561,98.17375126495944
178,8.344,0.44757730778529653,0.048531592745587424,42.48145874483088,98.17375126495944
179,8.388,0.44535824221004017,0.04922015485392775,42.437791100124976,98.17375126495944
180,8.432,0.4431391766347838,0.049908716962268077,42.39412345541907,98.17375126495944
181,8.474,0.44102097767658455,0.050565980792956565,42.35244070365434,98.17375126495944
182,8.52,0.438701045484271,0.05128584117894872,42.30678816600725,98.17375126495944
183,8.566,0.4363811132919575,0.05200570156494087,42.261135628360165,98.17375126495944
184,8.612,0.434061181099644,0.052725561950933045,42.21548309071308,98.17375126495944
185,8.656,0.4318421155243876,0.05341412405927337,42.17181544600717,98.17375126495944
186,8.7,0.42962304994913125,0.0541026861676137,42.12814780130127,98.17375126495944
187,8.742,0.427504850990932,0.05475994999830219,42.086465049536535,98.17375126495944
188,8.788,0.42518491879861847,0.05547981038429435,42.04081251188945,98.17375126495944
189,8.832,0.4229658532233621,0.05616837249263468,41.99714486718354,98.17375126495944
190,8.874,0.42084765426516285,0.05682563632332317,41.95546211541881,98.17375126495944
191,8.918,0.4186285886899065,0.0575141984316635,41.911794470712906,98.17375126495944
192,8.962,0.4164095231146502,0.058202760540003826,41.868126826007,98.17375126495944
193,9.006,0.4141904575393938,0.05889132264834416,41.824459181301094,98.17375126495944
194,9.05,0.41197139196413746,0.059579884756684486,41.78079153659519,98.17375126495944
195,9.094,0.4097523263888811,0.06026844686502482,41.73712389188928,98.17375126495944
196,9.138,0.40753326081362473,0.060957008973365145,41.69345624718338,98.17375126495944
197,9.182,0.4053141952383684,0.06164557108170547,41.64978860247747,98.17375126495944
198,9.228,0.4029942630460549,0.06236543146769763,41.604136064830385,98.17375126495944
199,9.28,0.4003717310025701,0.06317918668664528,41.55252884835976,98.17375126495944
200,9.324,0.3981526654273137,0.06386774879498561,41.50886120365386,98.17375126495944
201,9.37,0.39583273323500023,0.06458760918097776,41.46320866600677,98.17375126495944
202,9.414,0.3936136676597438,0.06527617128931809,41.419541021300866,98.17375126495944
203,9.458,0.39139460208448745,0.06596473339765843,41.37587337659496,98.17375126495944
204,9.5,0.3892764031262882,0.06662199722834691,41.33419062483023,98.17375126495944
205,9.546,0.38695647093397467,0.06734185761433907,41.28853808718314,98.17375126495944
206,9.592,0.3846365387416612,0.06806171800033123,51.242885549536055,98.17375126495944
207,9.636,0.382426483042872,0.06878021508111445,51.19921485526059,98.17375126495944
208,9.682,0.38011377867834995,0.06950399416138138,51.15359901950493,98.17375126495944
209,9.728,0.3777886219788744,0.07016524882510841,51.10802132222795,98.17375126495944
210,9.776,0.3753555664745578,0.07082339751876128,51.06047452367671,98.17375126495944
211,9.82,0.37312655579637555,0.07143769783688182,51.016879384820555,98.17375126495944
212,9.862,0.3709893649407162,0.07197276009142595,50.97529056510196,98.17375126495944
213,9.908,0.36863341246756953,0.07254279088066044,50.929670782170405,98.17375126495944
214,9.952,0.36639820943539697,0.0731480124359917,50.88605272479664,98.17375126495944
215,9.996,0.364126488712237,0.07269889031224772,50.84243466742288,98.17375126495944
216,10.04,0.36185476798907706,0.07224976818850373,50.798816610049116,98.17375126495944
217,10.084,0.3595830472659171,0.07180064606475975,50.75519855267535,98.17375126495944
218,10.13,0.35720806650988624,0.0713311092990274,50.70959785633005,98.17375126495944
219,10.176,0.35483308575385536,0.07086157253329506,50.663997159984746,98.17375126495944
220,10.222,0.3524581049978245,0.07039203576756271,50.61839646363944,98.17375126495944
221,10.27,0.3499798642089227,0.06990208435984199,50.570813128322605,98.17375126495944
222,10.314,0.34770814348576273,0.06945296223609801,50.52719507094884,98.17375126495944
223,10.36,0.34533316272973186,0.06898342547036566,50.48159437460354,98.17375126495944
224,10.41,0.34275166190795914,0.0684730594206566,50.43202840031517,98.17375126495944
225,10.456,0.34037668115192826,0.06800352265492424,50.386427703969865,98.17375126495944
226,10.5,0.3381049604287683,0.06755440053118025,50.3428096465961,98.17375126495944
227,10.548,0.3356267196398665,0.06706444912345955,50.295226311279265,98.17375126495944
228,10.592,0.33335499891670656,0.06661532699971556,50.2516082539055,98.17375126495944
229,10.64,0.3308767581278048,0.06612537559199486,50.204024918588665,98.17375126495944
230,10.686,0.3285017773717739,0.0656558388262625,50.15842422224336,98.17375126495944
231,10.732,0.326126796615743,0.06518630206053015,50.11282352589806,98.17375126495944
232,10.78,0.32364855582684127,0.06469635065280945,50.06524019058122,98.17375126495944
233,10.824,0.3213768351036813,0.06424722852906546,50.02162213320746,98.17375126495944
234,10.872,0.3188985943147795,0.06375727712134474,49.97403879789062,98.17375126495944
