,t,x,y,energy
0,4.7,0.5307904649937966,0.16199589827706581,49.79074986017386
1,4.89,0.531360662600884,0.1719204212969942,49.59196222733903
2,5.08,0.5319308602079713,0.18184494431692255,49.3931745945042
3,5.28,0.5325310682154318,0.19229181065368925,49.18392445467806
4,5.49,0.5331612866232652,0.2032610203072943,48.964211807860615
5,5.68,0.5337314842303528,0.21318554332722267,48.765424175025785
6,5.88,0.5343316922378132,0.2236324096639894,48.556174035199646
7,6.09,0.5349619106456467,0.23460161931759443,48.3364613883822
8,6.31,0.5356221394538532,0.24609317228803781,48.106286234573446
9,6.53,0.5362823682620597,0.2575847252584812,47.876111080764694
10,6.77,0.5370026178710122,0.2701209648626013,47.62501091297333
11,7.0,0.5376928570795917,0.28213486114988295,47.38437325217327
12,7.22,0.5383530858877983,0.2936264141203263,52.15419809836452
13,7.44,0.5356889810898123,0.3049537556666163,51.924022944555766
14,7.66,0.5330248762918264,0.31628109721290626,51.693847790747014
15,7.88,0.5303607714938405,0.3276084387591962,51.46367263693826
16,8.13,0.5273333796779475,0.3404804177890711,51.20210996215559
17,8.39,0.5241848921894187,0.35386727598014106,50.930084780381605
18,8.63,0.5212785960461612,0.366224375848821,50.67898461259024
19,8.87,0.5183722999029039,0.37858147571750095,55.42788444479888
20,9.1,0.5273033723199503,0.38856818765400625,55.187246783998816
21,9.34,0.5366227522333898,0.39898910445731606,54.93614661620745
22,9.57,0.5455538246504362,0.4089758163938214,54.69550895540739
23,9.81,0.5548732045638759,0.4193967331971312,54.44440878761603
24,10.04,0.5638042769809223,0.4293834451336365,54.203771126815965
25,10.29,0.5735119643907552,0.44023856680375095,53.94220845203329
26,10.54,0.5832196518005882,0.4510936884738654,53.68064577725062
27,10.79,0.5929273392104212,0.4619488101439798,53.419083102467944
28,11.04,0.6026350266202541,0.4728039318140943,58.15752042768527
29,11.3,0.6207588404773906,0.4726691499809613,57.88549524591129
30,11.55,0.6381855845707911,0.4725395520644873,57.62393257112861
31,11.83,0.6577035379553995,0.4723944023980363,57.33098237537202
32,12.1,0.6765244215762719,0.47225443664824435,57.04849468660673
33,12.38,0.6960423749608804,0.47210928698179344,56.755544490850134
34,12.64,0.7118205658159344,0.46541982438703267,56.48351930907615
35,12.89,0.7269919031765634,0.4589876488151473,56.22195663429348
36,13.14,0.7421632405371923,0.452555473243262,55.9603939595108
37,13.4,0.7579414313922465,0.4458660106485012,55.68836877773682
38,13.66,0.7737196222473005,0.4391765480537404,55.416343595962836
39,13.94,0.7907115200912049,0.4319725114132288,55.12339340020624
40,14.19,0.8058828574518339,0.4255403358413433,54.861830725423566
41,14.44,0.8210541948124628,0.419108160269458,59.60026805064089
42,14.68,0.8220308670940821,0.40658168657528704,59.34916788284953
43,14.92,0.8230075393757016,0.394055212881116,59.098067715058164
44,15.16,0.8239842116573209,0.38152873918694497,58.8469675472668
45,15.4,0.8249608839389403,0.36900226549277393,58.595867379475436
46,15.64,0.8259375562205596,0.3564757917986029,60.84476721168407
47,15.89,0.8423916539395397,0.3607831650663219,60.5832045369014
48,16.13,0.8581875877497606,0.36491824340333223,60.332104369110034
49,16.37,0.8739835215599814,0.36905332174034255,60.08100420131867
50,16.61,0.8897794553702022,0.3731884000773528,59.829904033527306
51,16.83,0.9042590613629046,0.3769788885529456,59.599728879718555
52,17.07,0.9200549951731254,0.38111396688995586,59.34862871192719
53,17.32,0.9365090928921055,0.38542134015767493,59.08706603714452
54,17.57,0.9529631906110855,0.38972871342539395,58.82550336236184
55,17.83,0.9700754522388249,0.3942083816238217,58.55347818058786
56,18.08,0.9865877173716299,0.3981996193690963,58.29229457945079
57,18.33,1.0032618040621,0.401917701374993,58.030886266422115
58,18.58,1.0198990108492298,0.4059428105844205,57.76906535838599
59,18.83,1.0366910664517195,0.40970709485094475,57.507029918823385
60,19.1,1.0503229468735347,0.4195560504342806,59.724031644095774
61,19.37,1.0641332041996328,0.4292815697830217,59.440957377635044
62,19.63,1.0770282422565685,0.4389388447969197,59.16845970768648
63,19.89,1.0896241082802125,0.4488763820017329,58.89568106702966
64,20.15,1.1020296082811332,0.45886242007914674,58.623302627268004
65,20.4,1.113669840142724,0.46867279777932297,58.36134519384334
66,20.65,1.1137147560941247,0.4555404593711653,58.09938776041868
67,20.9,1.1137596720455252,0.4424081209630075,57.83743032699402
68,21.16,1.1138063846349815,0.42875048901852353,57.56499459623237
69,21.41,1.113851300586382,0.4156181506103658,57.303037162807705
70,21.67,1.1138980131758383,0.4019605186658818,57.030601432046055
71,21.93,1.1139447257652946,0.3883028867213977,56.758165701284405
72,22.18,1.1139896417166952,0.37517054831324,56.49620826785974
73,22.45,1.1138276168549344,0.36091998534428665,56.212858342623726
74,22.74,1.1135774780301988,0.34562292950981677,55.908574001369566
75,23.03,1.1128171437089793,0.3303411969656551,55.6043270210714
76,23.31,1.1123759628859877,0.31556165871831793,55.31045485996846
77,23.62,1.1120912990924998,0.2991222129099866,54.98462489764062
78,24.04,1.0960962833212844,0.2803538650540198,54.54317785190613
79,24.47,1.0797204338412307,0.26113865177291096,54.09122016222558
80,24.8,1.0671529214495616,0.24639209274322277,53.744368912005626
81,25.08,1.0564895776020848,0.23387986083924495,53.45007088151597
82,25.35,1.0462070674634463,0.22181449436040918,53.16628349497237
83,25.62,1.035924557324808,0.20974912788157343,52.88249610842877
84,25.9,1.0497461943356818,0.2203819732987383,52.58819807793911
85,26.18,1.063567831346556,0.23101481871590318,52.293900047449455
86,26.46,1.07738946835743,0.24164766413306804,51.9996020169598
87,26.76,1.0921983651547948,0.2530399985086018,51.68428269857802
88,27.05,1.1065136320589144,0.26405258840495116,51.379474024142304
89,27.33,1.1203352690697885,0.274685433822116,51.08517599365265
90,27.61,1.1341569060806627,0.2853182792392809,50.79087796316299
91,27.88,1.1474849131982912,0.2955713801772613,50.50709057661939
92,28.17,1.1618001801024107,0.30658397007361066,60.20228190218367
93,28.44,1.1766581584034717,0.2975912523520821,59.91849451564007
94,28.7,1.1909658412119006,0.2889315982498694,59.64521777304253
95,28.98,1.2063741150055933,0.279605816909025,59.350919742552875
96,29.25,1.221232093306654,0.2706130991874964,60.73379902267594
97,29.53,1.203198494088323,0.2644824336104468,60.43950099218628
98,29.8,1.1858089519849322,0.2585707203754347,60.15571360564268
99,30.07,1.1684194098815415,0.25265900714042255,59.87192621909908
100,30.34,1.1510298677781508,0.24674729390541045,59.58813883255548
101,30.61,1.1336403256747603,0.24083558067039834,59.30435144601188
102,30.9,1.1149626693414887,0.23448596275131126,58.99954277157616
103,31.17,1.0975731272380982,0.22857424951629915,60.14432681360399
104,31.46,1.1147133329535224,0.23701779775861426,59.83951813916827
105,31.73,1.1332897430895366,0.2337106832385039,59.55573075262467
106,32.02,1.153242183605996,0.23015859727245944,59.25092207818895
107,32.3,1.1725066089322327,0.22672899702938198,60.385195476270724
108,32.58,1.1855030916198193,0.23793189903441458,60.09089744578107
109,32.87,1.1989637344033912,0.2495349046824841,59.78608877134535
110,33.16,1.212424377186963,0.2611379103305536,59.48128009690963
111,33.44,1.2254208598745495,0.2723408123355862,59.18698206641997
112,33.74,1.2393456627541066,0.2843439216266926,58.8716627480382
113,34.01,1.2518779853457078,0.2951467199886883,58.587875361494596
114,34.28,1.264410307937309,0.30594951835068407,61.63742130828433
115,34.54,1.2684604022499173,0.3193998725685333,61.36414456568679
116,34.8,1.2725104965625254,0.33285022678638254,61.090867823089255
117,35.05,1.2764048180169563,0.3457832596881606,60.82810172443777
118,35.32,1.2806106851877417,0.359750935222081,60.54431433789417
119,35.57,1.2845050066421726,0.37268396812385907,60.28154823924269
120,35.83,1.2885551009547807,0.3861343223417083,60.00827149664515
121,36.08,1.2924494224092116,0.39906735524348647,59.74550539799367
122,36.34,1.2964995167218194,0.4125177094613357,62.567466750634225
123,36.59,1.2838016611345742,0.4217426256814796,67.30470065198274
124,36.85,1.2708063515483106,0.43153919559327153,67.03123200491468
125,37.12,1.26331189549819,0.4447431750292156,66.7472453329594
126,37.39,1.2559757432347953,0.45802290387004935,66.46310592540547
127,37.66,1.2482058553067874,0.471220089066087,66.1786331922717
128,37.93,1.2405395735978753,0.48452401262850014,65.89373354786508
129,38.2,1.2331918119367027,0.49796841563966837,65.60859849234728
130,38.46,1.2263982566264704,0.5110563695776291,65.33368543501146
131,38.73,1.2197591745497889,0.5247241898036894,65.0484443466354
132,39.0,1.213121122718714,0.538433155324292,64.76295748068611
133,39.28,1.206637746587563,0.5526924805249601,64.46727816926851
134,39.56,1.2001323113202569,0.5669085368149476,64.17182659696218
135,39.82,1.1937509173057153,0.5799945961008761,63.89762358709466
136,40.09,1.1871110879442681,0.593514048857329,63.613272875691244
137,40.36,1.179902506598504,0.6068686427432337,63.32892216428783
138,40.63,1.1726939252527395,0.6202232366291385,63.04457145288442
139,40.9,1.1659553373600557,0.6336886722249556,62.76037956358258
140,41.17,1.1593058552298094,0.6471349333190167,62.47645216272272
141,41.44,1.152570611537045,0.6606128151232036,62.192191328005
142,41.71,1.1460965760379733,0.6741846179598214,61.9077972619399
143,41.98,1.139529420857668,0.6877272928773333,61.62342688508749
144,42.25,1.1329903736204643,0.7012096665294119,61.339465307863776
145,42.51,1.1266730176177249,0.7141511137812958,61.06623708130539
146,42.78,1.1200084191488802,0.7275949734351282,60.78229882934494
147,43.05,1.113631037353817,0.7410956323361177,60.498489315909154
148,43.37,1.1065939782071827,0.7115533909570194,60.162323157014974
149,43.68,1.0991811909322138,0.6961070061908252,59.83664923659726
150,43.99,1.0919751210518667,0.6806203020414036,59.51106358791894
151,44.26,1.085685673351701,0.6670640436114706,59.22705816402353
152,44.54,1.0794930285342803,0.6529968094942663,58.93298834909054
153,44.81,1.0740620325837569,0.6393315667508395,58.649585247412666
154,45.09,1.068043799416724,0.6252524005638568,58.35570184282876
155,45.35,1.0628617628972614,0.6121138250356307,58.08298654098035
156,45.62,1.0576870646176197,0.5984415393044119,57.799883852993865
157,45.89,1.0522786397354709,0.5847584912319933,57.516402391571646
158,46.17,1.0464940765532094,0.5705977732302905,57.22235644024465
159,46.45,1.0403274644989637,0.5565158264254801,56.928236272006664
160,46.73,1.0404867846065735,0.5416943152318761,56.634116103768676
161,47.02,1.0406517947180265,0.5263434643527862,56.329491643807906
162,47.29,1.0408054248217933,0.5120512928446681,56.045875767292706
163,47.56,1.0409590549255598,0.49775912133655,55.76225989077751
164,47.83,1.0411126850293264,0.48346694982843186,55.47864401426231
165,48.12,1.0412776951407794,0.468116098949342,55.17401955430154
166,48.41,1.0414427052522326,0.4527652480702521,54.86939509434077
167,48.69,1.0416020253598424,0.43794373687664806,64.5752749261028
168,48.97,1.0413535042819002,0.42305540730407154,64.28072273599288
169,49.25,1.0408270611507304,0.4081323752337501,63.985922493957354
170,49.52,1.0406601508104234,0.3936972264000471,63.701391061206834
171,49.82,1.040040243393027,0.37769904818074235,63.38546726341228
172,50.11,1.0396310614878341,0.36225197246107277,63.08021064898625
173,50.4,1.030969553532595,0.3482338909219876,62.774954034560224
174,50.68,1.0226067182654672,0.3346991915049398,62.48022351028682
175,50.98,1.0136465376221164,0.32019772784381717,62.164440805708175
176,51.27,1.0088478171415725,0.3051726409537656,61.85918419128215
177,51.57,1.0295881886008378,0.3015003151148357,61.5434014867035
178,51.9,1.0524025972060296,0.2974607566920128,61.19604051166699
179,52.21,1.0738343143806035,0.2936660199917852,60.869731716935725
180,52.5,1.093936027787141,0.2899788207566515,60.56402389344382
181,52.79,1.1139597716022491,0.28600715282518774,60.25822974190116
182,53.1,1.1354773224588819,0.28212149897459343,59.931385227350965
183,53.41,1.1568481860551596,0.27777698243794774,59.60449489399599
184,53.75,1.1801654244426099,0.2729593828875652,59.246445035274505
185,54.1,1.2043004236553863,0.26804165652342027,58.877323542860225
186,54.41,1.217395459417588,0.2546417746938203,58.55038736386472
187,54.71,1.2300680746713317,0.2416741471167881,58.23399751322391
188,55.0,1.2423182694166173,0.22913877379232367,57.928153990937794
189,55.3,1.2554098364575075,0.21649531918110965,57.612209109412
190,55.59,1.2675768144981776,0.2040898527464349,57.30727214812901
191,55.88,1.2801894067703055,0.1919956672936231,57.002629665552675
192,56.17,1.2931261341270122,0.1800413680954784,56.697717813798015
193,56.48,1.307486679753314,0.16759133414941918,56.37175089640171
194,56.77,1.320873683383987,0.15584019662099063,56.066455024243425
195,57.08,1.2896904731386163,0.14344238097726233,55.74050323886422
196,57.61,1.2656217182705685,0.12197683551943635,55.18383346431882
197,58.14,1.2419703725295463,0.10012525790827802,54.62653527577535
198,58.45,1.2285995900020414,0.08703550259639518,54.30039372031755
199,58.73,1.2162443145968866,0.07537739164257788,54.0058239797821
200,59.0,1.197898205320417,0.0712671346019578,53.721774587122916
201,59.28,1.1788726105151892,0.06700464581909255,53.427204846587465
202,59.57,1.1591675301812034,0.0625899252939821,53.12211475817575
203,59.85,1.1401419353759756,0.05832743651111684,52.8275450176403
204,60.13,1.1211163405707478,0.054064947728251565,52.532975277104846
205,60.41,1.10220158942104,0.04971205814271447,52.23874709970243
206,60.7,1.0826917194800947,0.04488327523652591,51.9337563643013
207,60.98,1.0637963223503009,0.040165031417683794,51.638904301325304
208,61.27,1.044310160693811,0.03514520007657793,51.33363121551126
209,61.56,1.024919798627933,0.02990332441552026,51.02832011562172
210,61.83,1.0067246517682347,0.02537107514259095,50.74414955359746
211,62.11,0.9880876356245949,0.020251881394450052,50.44962167813309
212,62.4,0.9690481286042304,0.014545597890720293,50.144829439093854
213,62.68,0.9508467796115169,0.02247045208619205,49.8507295710717
214,62.96,0.9310986453041933,0.021992174826762287,54.55662970304955
215,63.24,0.9113505109968698,0.021513897567332525,54.2625298350274
216,63.54,0.8901917956675945,0.021001457646514943,53.9474228335751
217,63.84,0.8690770906840085,0.020900533757567584,53.63257796214786
218,64.17,0.8458582721340959,0.021352780081630034,53.2862486035779
219,64.47,0.8247502552705389,0.02176391310350499,52.97140373215067
220,64.76,0.8043687456135038,0.02229932507852439,52.66713667185012
221,65.04,0.78472746633954,0.022514942677128436,52.373589018646676
222,65.33,0.764307482033343,0.022299844143280765,52.0691876054225
223,65.63,0.7431148592365052,0.022525852026378558,51.753960503467624
224,65.92,0.7231019696653921,0.02581676964576301,51.44924097157791
225,66.2,0.7037791797346622,0.02899420734723765,51.155029009753356
226,66.5,0.6830761905231658,0.032398604884531904,50.83980190779848
227,66.79,0.6663811316831441,0.04130576160772787,50.535082375908765
228,67.08,0.6496860728431223,0.05021291833092384,50.23036284401905
229,67.39,0.6318396306348232,0.05973436172468505,49.90462817199901
230,67.7,0.6141845071500591,0.06938330542754409,49.579161971612095
231,67.99,0.59787211250056,0.0787013789804003,49.27436245343756
232,68.28,0.5818273367088537,0.08831110935341806,48.96942787649143
233,68.58,0.5654965831425187,0.09856469855546952,48.65370554972549
234,68.87,0.5500718077072103,0.10883261327095647,48.34833388088568
235,69.16,0.5346082136348473,0.11913950254211018,48.04265725704481
236,69.46,0.5190721131724627,0.13013668516715993,47.72662334863457
237,69.75,0.504447316193988,0.14115747132664486,47.42073465492841
238,70.05,0.48923921735055004,0.15241202024022052,47.10468985960187
239,70.34,0.47415522974068997,0.16302346034138723,46.799044607831576
240,70.64,0.4582414117635137,0.17376195611193426,46.48279934849337
241,70.93,0.44795459754138817,0.1872284747116248,46.17709559779978
242,71.25,0.4366036301238704,0.20208808144231782,45.83976732117236
243,71.55,0.4259620981699475,0.2160189627523425,45.52352206183416
244,71.85,0.4153205662160246,0.2299498440623672,45.207276802495954
245,72.16,0.4043243165303042,0.24434508808272604,44.880490034513144
246,72.45,0.39403750230817874,0.2578116066824166,44.57478628381955
247,72.75,0.38326038554241776,0.27160449308984,44.258978893916904
248,73.04,0.3730367653184368,0.28500336625658473,43.95380156906013
249,73.34,0.3626319743909063,0.2988593904332696,43.63853415140213
250,73.65,0.37625228464091803,0.31173085147167673,43.3127578198222
251,73.95,0.38943323004415525,0.3241871040894901,42.9974904021642
252,74.26,0.40305354029416696,0.3370585651278973,42.67171407058427
253,74.6,0.41748790578609735,0.35146869524354307,42.314405334352
254,74.91,0.4305648678919289,0.3645810497453038,41.988999703361074
255,75.2,0.4423952560951942,0.37710121745965974,41.68441337982096
256,75.49,0.4542372724449528,0.3897072482108666,41.37934605702765
257,75.77,0.4635856887503781,0.3765726379442368,41.08479829708927
258,76.06,0.4732679770667115,0.36296893445379885,40.77973097429596
259,76.35,0.4829502653830448,0.34936523096336086,40.474663651502645
260,76.62,0.491964809677562,0.33669971392053927,40.190635454419215
261,76.92,0.5019809700048034,0.32262691720629305,39.87504856877096
262,77.2,0.5113293863102286,0.30949230693966323,49.58050080883258
263,77.49,0.5214292616265214,0.29606391804352594,49.275452669527745
264,77.77,0.531685959917252,0.28326334254069463,48.98061452020266
265,78.05,0.5417777838926953,0.27038384425001877,48.68574646630655
266,78.33,0.5522673175596423,0.25762902223060674,48.3905772198989
267,78.62,0.5626815732623187,0.24420915644802826,48.08482613037702
268,78.9,0.5727450161570011,0.23121176836740806,47.789375313873514
269,79.19,0.5836453701450993,0.2179694695078022,47.48339907301056
270,79.49,0.5953214464976866,0.2043730458261522,47.16640303511674
271,79.78,0.6071524991375609,0.1914186502683856,46.859534652615146
272,80.07,0.6194481669574335,0.1787383749529649,46.552813428904926
273,80.39,0.632895825943588,0.16471883245578198,46.214557251301216
274,80.81,0.6498225025230879,0.14591146495251933,45.77044589877195
275,81.23,0.6671301254690487,0.12731561277596332,45.32641573583473
276,81.53,0.6797817691526478,0.11418814471262322,45.009258032543045
277,81.84,0.6922515615462984,0.1003909786253157,44.68197306061207
278,82.13,0.7044582464227974,0.08774065578924731,44.375657812983405
279,82.53,0.7212292667682303,0.07032646327629292,43.95351811734964
280,82.96,0.7395118436488589,0.051697891686798246,43.49947451851882
281,83.32,0.7545201140409186,0.03594766333589931,43.119386092359164
282,83.65,0.7682941372066201,0.021421930153937205,42.77046717345496
283,83.97,0.782055186241377,0.007511116282469868,42.43188544887788
284,84.28,0.7954573559858905,0.03725634003258155,42.10346827778238
285,84.58,0.8087535514723017,0.05014277036123114,41.78569261051924
286,84.92,0.8241020056174247,0.06462976051241873,41.42531160111602
287,85.24,0.8387135108974959,0.0781326672954061,41.08628909541081
288,85.54,0.8523303569221234,0.0908242521088136,40.768538876408996
289,85.84,0.8656058602313165,0.10381414873772446,40.4502991851696
290,86.15,0.8787709321394007,0.11748291779698554,40.12177370880872
291,86.45,0.8910124364599207,0.13089362617341743,39.80426617676496
292,86.75,0.9031571156815796,0.14434488255655284,39.48680570771457
293,87.05,0.9153273432657805,0.1577621457420743,39.169456380556746
294,87.35,0.9361257678068925,0.16223586767383208,38.85210705339892
295,87.65,0.9569241923480045,0.16670958960558988,38.53475772624109
296,87.95,0.9777226168891164,0.17118331153734764,38.21740839908326
297,88.25,0.9985210414302285,0.17565703346910544,37.90005907192543
298,88.55,1.0193194659713405,0.18013075540086324,37.582709744767605
299,88.86,1.0408111713304895,0.18475360139701294,37.25478210670452
300,89.15,1.0609163150535645,0.1890781992643788,36.94801109045195
301,89.45,1.0817147395946765,0.19355192119613657,36.63066176329412
