,t,x,y,energy,sight
0,5.548,0.29530073456101946,0.3300068854291444,49.97678713671998,23.131394582879274
1,5.594,0.2970358886302086,0.33163064578650936,49.95448444080795,23.131394582879274
2,5.638,0.2987079529331935,0.333170246184059,49.933152539378476,23.131394582879274
3,5.682,0.30036095463060375,0.33474362935395185,49.911761934048755,23.131394582879274
4,5.728,0.30207555815536474,0.33641967121407185,49.88932300465721,23.131394582879274
5,5.772,0.3037497541444554,0.3379974219310056,49.86781469394505,23.131394582879274
6,5.818,0.305546814831349,0.33958855803914734,49.845359544712316,23.131394582879274
7,5.86,0.30719241885517146,0.34103821186131206,49.82484717512639,23.131394582879274
8,5.906,0.3089836379868428,0.34263635147602434,49.802390192879585,23.131394582879274
9,5.952,0.3107697000872258,0.34424127125158066,49.77992885339358,23.131394582879274
10,5.996,0.3124626483958906,0.34579456882557286,49.75843922497332,23.131394582879274
11,6.04,0.31410858839379957,0.34740148738276955,49.736932199345254,23.131394582879274
12,6.086,0.31583450487023723,0.3490738363092989,49.7144578674728,23.131394582879274
13,6.13,0.3174936461012215,0.3506679195436406,49.692947301481404,23.131394582879274
14,6.178,0.31929728748944075,0.352418840411328,49.669457373502716,23.131394582879274
15,6.222,0.32094085367532993,0.3540224642651849,49.647975948130274,23.131394582879274
16,6.264,0.3225486543762958,0.35551075228299245,49.627477424656306,23.131394582879274
17,6.31,0.3242885038605862,0.3571705998925052,49.6049942649545,23.131394582879274
18,6.352,0.325865311222925,0.3587000582832157,49.584458487348336,23.131394582879274
19,6.398,0.3275627938323991,0.36040447976618,49.56196956715382,23.131394582879274
20,6.442,0.3291836513438732,0.36203039904942413,49.54049110573335,23.131394582879274
21,6.488,0.3309224680577414,0.3636913078125066,49.51800803763048,23.131394582879274
22,6.536,0.3327814103860681,0.3653794476425306,49.494535130466375,23.131394582879274
23,6.59,0.3349100124413452,0.3672189374384301,49.46820269416544,23.131394582879274
24,6.636,0.33671732848165836,0.36878685810902356,49.44579611655571,23.131394582879274
25,6.682,0.33850689185970123,0.3703661325315012,49.42342719607416,23.131394582879274
26,6.726,0.34018105446274755,0.37190502561569344,49.40208847657144,23.131394582879274
27,6.77,0.3418811212332913,0.3734159496600046,49.38074679355841,23.131394582879274
28,6.814,0.3435492751676154,0.37494661172582416,49.35947202984007,23.131394582879274
29,6.858,0.34517999015059,0.37650342806765946,49.33825782456536,23.131394582879274
30,6.902,0.34677089541335493,0.37810178844850906,49.31703960732828,23.131394582879274
31,6.948,0.34840544910478655,0.37980913077192124,49.294818697831104,23.131394582879274
32,6.992,0.34997836950145556,0.3814462934270633,49.273503402371254,23.131394582879274
33,7.036,0.351547092003261,0.3830981364698028,49.2521387239714,23.131394582879274
34,7.08,0.35310169437289207,0.38476665856531506,49.230758210691185,23.131394582879274
35,7.124,0.3546818612497405,0.3864022188259103,49.20941812290141,23.131394582879274
36,7.166,0.3561881609437847,0.3879749345398981,49.18900405800898,23.131394582879274
37,7.214,0.3578874978469693,0.38979023782420247,49.16568791025891,23.131394582879274
38,7.26,0.3594710665524373,0.3915607986324578,49.14339165487875,23.131394582879274
39,7.306,0.36105510474067914,0.39333059226319544,49.121097055142144,23.131394582879274
40,7.35,0.3625398724861484,0.395036391728702,49.0998383807375,23.131394582879274
41,7.394,0.36398696153554094,0.3967762644213395,49.078569894306526,23.131394582879274
42,7.44,0.3655222040389421,0.3985806572267335,49.05631379953839,23.131394582879274
43,7.484,0.3669911368756889,0.40030120981590506,49.03504978049809,23.131394582879274
44,7.53,0.368476471534706,0.40213202417758237,49.01286775372891,23.131394582879274
45,7.578,0.3699724979286974,0.4040820348857144,48.98973597508711,23.131394582879274
46,7.626,0.3715095197735932,0.405987714202634,48.966664969689774,23.131394582879274
47,7.674,0.3730086035647543,0.4079187218291301,48.94361751810347,23.131394582879274
48,7.72,0.3744764247815738,0.4097486291453545,48.921510385379776,23.131394582879274
49,7.768,0.3760368814027074,0.4116342475369901,48.89844391375723,23.131394582879274
50,7.814,0.3774921346070446,0.41346938096521235,48.87636078572492,23.131394582879274
51,7.858,0.3788419854936431,0.4152501887385952,48.85527422746394,23.131394582879274
52,7.904,0.3802914728924205,0.41706733598495005,48.83330416104843,23.131394582879274
53,7.95,0.3817652707180259,0.41886615659398796,48.81132749112149,23.131394582879274
54,7.994,0.383134201902864,0.4206323752414588,48.79024075076767,23.131394582879274
55,8.038,0.38445064294280423,0.4224383322569847,48.76915258297562,23.131394582879274
56,8.084,0.38583041426776915,0.4243165813924195,48.74714326309254,23.131394582879274
57,8.128,0.3871001358645393,0.42615065917753137,48.72608155713748,23.131394582879274
58,8.172,0.388372526757368,0.4279848331426598,48.70500961454409,23.131394582879274
59,8.216,0.38964395462498363,0.4298324962354039,48.68387014890989,23.131394582879274
60,8.258,0.3908229479257596,0.43160789888708634,48.663753578819126,23.131394582879274
61,8.302,0.3920201751879484,0.43350582473635785,48.64260685580711,23.131394582879274
62,8.344,0.39315602020469587,0.4353207380259586,48.622427406530136,23.131394582879274
63,8.388,0.39430282011134554,0.43724237418544476,48.60132015345219,23.131394582879274
64,8.432,0.39549982087747404,0.43912259410919335,48.58026992323489,23.131394582879274
65,8.474,0.39669547345808004,0.4408796006439326,48.56019157868461,23.131394582879274
66,8.52,0.3979862216507438,0.442818904374065,48.53818865703718,23.131394582879274
67,8.566,0.39924371830097277,0.44478702134479303,48.51614752521295,23.131394582879274
68,8.612,0.4005373477294998,0.4467290299465748,48.49411997441808,23.131394582879274
69,8.656,0.40175463161745323,0.44859969694095936,48.473050895739554,23.131394582879274
70,8.7,0.4030102596244099,0.4504453684036388,48.45197905045017,23.131394582879274
71,8.742,0.40418894679885514,0.4522156118559096,48.4318910603085,23.131394582879274
72,8.788,0.40546444992208086,0.4541654827252334,48.40988542628532,23.131394582879274
73,8.832,0.40664273189163164,0.4560584816027237,48.38882980560107,23.131394582879274
74,8.874,0.40771866878065915,0.4579001654288029,48.36870218942486,23.131394582879274
75,8.918,0.40882711576653763,0.45983329125072636,48.34765541621445,23.131394582879274
76,8.962,0.4098866140667371,0.461800664416506,48.326569258814025,23.131394582879274
77,9.006,0.41099612844488087,0.46373862223100126,48.305492256973295,23.131394582879274
78,9.05,0.4120626298922179,0.465706322932055,48.28438295085693,23.131394582879274
79,9.094,0.41314046195737025,0.4676754028165857,48.26323120636731,23.131394582879274
80,9.138,0.4142122087113437,0.4696528304163096,48.24205117366281,23.131394582879274
81,9.182,0.4153256789314649,0.4716177219397489,48.22081185875865,23.131394582879274
82,9.228,0.4165379447678908,0.47365157804486113,48.19856474048775,23.131394582879274
83,9.28,0.4179549675066556,0.47592191796795474,48.17341775809292,23.131394582879274
84,9.324,0.4191453858502719,0.47786001360177777,48.1520758049135,23.131394582879274
85,9.37,0.42034405747897885,0.47990268859682406,48.12982439528723,23.131394582879274
86,9.414,0.42153451973390277,0.4818168317204701,48.108612694271656,23.131394582879274
87,9.458,0.42271927573823476,0.48372286141866827,48.08746437368679,23.131394582879274
88,9.5,0.4238280675775014,0.485546164197029,48.0673301386093,23.131394582879274
89,9.546,0.4250191735435287,0.48756156471572654,48.04525371224375,23.131394582879274
90,9.592,0.42618378214378616,0.48957891398028924,48.02325205248563,23.131394582879274
91,9.636,0.4272833838735286,0.4915175677071141,48.00220259118046,23.131394582879274
92,9.682,0.4284136167515046,0.4935665880158293,47.98013253878417,23.131394582879274
93,9.728,0.4295320312941507,0.4956171246376918,47.95809035296965,23.131394582879274
94,9.776,0.4306963755663797,0.49777201443798147,47.93501255526478,23.131394582879274
95,9.82,0.43180394790840565,0.4997243130168868,47.91386196738442,23.131394582879274
96,9.862,0.43290829897940164,0.5015640414368694,47.89365245313055,23.131394582879274
97,9.908,0.4341707054336464,0.5035413964039537,47.871544579973744,23.131394582879274
98,9.952,0.43532212626534134,0.5054748619511379,47.85035715388801,23.131394582879274
99,9.996,0.43650218586095085,0.5073918119410533,47.82916520802102,23.131394582879274
100,10.04,0.437700640633122,0.5093108234424278,47.80790000922107,23.131394582879274
101,10.084,0.43891778550380056,0.5112274276192872,47.78658410336187,23.131394582879274
102,10.13,0.44020272840331287,0.5132356343237706,47.764232182520374,23.131394582879274
103,10.176,0.44148872841602926,0.5152426115429506,47.74188324013217,23.131394582879274
104,10.222,0.44277066041198737,0.5172529426449161,47.71953023433311,23.131394582879274
105,10.27,0.4441620604495668,0.5193285138508946,47.69613588285044,23.131394582879274
106,10.314,0.44544951218715056,0.5212215835936511,47.67469866379709,23.131394582879274
107,10.36,0.4468215035282747,0.523183239209984,47.65228448278103,23.131394582879274
108,10.41,0.448285693638278,0.5253469772124941,47.62785345623398,23.131394582879274
109,10.456,0.4496185552601505,0.527356317563078,47.60532803800152,23.131394582879274
110,10.5,0.4508320101460087,0.5293094808531388,47.58382655865182,23.131394582879274
111,10.548,0.4521555871796144,0.5314512683825217,47.5603108552901,23.131394582879274
112,10.592,0.45340609168203605,0.5334046062032997,47.53868193627683,23.131394582879274
113,10.64,0.454737968299144,0.5355612175540353,47.51505760327938,23.131394582879274
114,10.686,0.45606513283853956,0.5376093076160806,47.492344777748656,23.131394582879274
115,10.732,0.4574490439717507,0.5396161263570634,47.46964967291651,23.131394582879274
116,10.78,0.4588698089184409,0.5417188324473331,47.44600631557205,23.131394582879274
117,10.824,0.4601423200410716,0.5436694304726978,47.424315676575205,23.131394582879274
118,10.872,0.4615377226101284,0.5457949382464534,47.400640843227116,23.131394582879274
119,10.918,0.4628396645744681,0.5478494155808897,47.3779806972338,23.131394582879274
120,10.966,0.4641521512101625,0.5500129014304141,47.3543836255551,23.131394582879274
121,11.014,0.46552032828433765,0.5521547854041883,47.33071553456403,23.131394582879274
122,11.06,0.4668040444421283,0.5542378166202028,47.307962235209615,23.131394582879274
123,11.106,0.4680999457880244,0.5563195461468211,47.28517495389642,23.131394582879274
124,11.152,0.4694005610639585,0.5584057814173893,47.26234724453527,23.131394582879274
125,11.196,0.470697902034503,0.5603609648639429,47.240544744137,23.131394582879274
126,11.242,0.47211376507959957,0.5623620836235048,47.217762440396875,23.131394582879274
127,11.294,0.4737521422727868,0.5646078946542978,47.191952078372786,23.131394582879274
128,11.34,0.4751924072320136,0.5666039300544641,47.16910545103358,23.131394582879274
129,11.388,0.47673401947944816,0.5686677243384071,47.14521695611138,23.131394582879274
130,11.434,0.47825979690185105,0.5706126475580184,47.122302607309535,23.131394582879274
131,11.48,0.4797432469614781,0.5726048612926049,47.09931230250652,23.131394582879274
132,11.528,0.4812964706849924,0.5746901881939461,47.07526891202261,23.131394582879274
133,11.576,0.48289326135953914,0.5767510195668636,47.05118167615613,23.131394582879274
134,11.626,0.4846049516117555,0.5788496638296089,47.02613891560031,23.131394582879274
135,11.672,0.48612848005842657,0.5808180266345772,47.00311508360407,23.131394582879274
136,11.718,0.4876753527954524,0.5827804692809215,46.98002914238021,23.131394582879274
137,11.766,0.48923671634934845,0.5848646180481094,46.95596061597569,23.131394582879274
138,11.812,0.4907295462362476,0.5868650204001462,46.93289241568755,23.131394582879274
139,11.858,0.4922442219267246,0.5888621406641921,46.909756946027095,23.131394582879274
140,11.906,0.49382625904311317,0.5909308102482507,46.88568755572201,23.131394582879274
141,11.952,0.49532480245406385,0.5929369446337391,46.86256808328867,23.131394582879274
142,11.998,0.49680792614079944,0.5949414734666032,46.83951573547614,23.131394582879274
143,12.044,0.49826788125893706,0.5969738464472257,46.81640674381513,23.131394582879274
144,12.088,0.49971658783132317,0.5988659176536701,46.7943703412058,23.131394582879274
145,12.134,0.5011974521983853,0.6008642598458817,46.77135841873837,23.131394582879274
146,12.178,0.5025969439937443,0.602780633233192,46.749386096983535,23.131394582879274
147,12.226,0.5040985202302026,0.6048900562511901,46.7254126269005,23.131394582879274
148,12.272,0.5055545422428988,0.6069112635943813,46.70237634458493,23.131394582879274
149,12.318,0.5069609811207416,0.6089635593468775,46.67935971733491,23.131394582879274
150,12.364,0.5084234348102817,0.6109869225163401,46.65628816016866,23.131394582879274
151,12.41,0.5098295810412113,0.6130629266444652,46.63314719087068,23.131394582879274
152,12.456,0.5111698461546086,0.6151749389828756,46.610044725074125,23.131394582879274
153,12.502,0.5124613426459941,0.6173119378978051,46.58697065809536,23.131394582879274
154,12.55,0.5137515356137562,0.6195647275457181,46.56295366565377,23.131394582879274
155,12.596,0.5150468401481709,0.6217024313556686,46.53986312126635,23.131394582879274
156,12.642,0.5162996414631628,0.6238567105237875,46.51682022378541,23.131394582879274
157,12.686,0.5174846799569531,0.6259297711195766,46.49475268245022,23.131394582879274
158,12.732,0.5187552894059305,0.6280724381663552,46.471716154495105,23.131394582879274
159,12.778,0.5200932036475,0.6301830589112155,46.44862926815176,23.131394582879274
160,12.822,0.5213100602313294,0.6322311997247875,46.4265969798318,23.131394582879274
161,12.868,0.5225625914349771,0.6343767658994858,46.40360313385537,23.131394582879274
162,12.914,0.523829063290809,0.6365158207354421,46.38059999367019,23.131394582879274
163,12.96,0.5250656910385196,0.6386728848395526,46.35759342044386,23.131394582879274
164,13.006,0.5262630173696135,0.6408460160046019,46.33462045330274,23.131394582879274
165,13.054,0.5274741865155018,0.6431414022081118,46.31060830648532,23.131394582879274
166,13.102,0.5287259030765334,0.6454153927958879,46.28659357181087,23.131394582879274
167,13.15,0.5299623046670823,0.6477083321611993,46.26251923708483,23.131394582879274
168,13.194,0.5311623988876165,0.6497773207579334,46.24042619666449,23.131394582879274
169,13.24,0.532441835088716,0.6519149851378663,46.217388261446736,23.131394582879274
170,13.288,0.5337491200431964,0.6541599319864969,46.193360029769586,23.131394582879274
171,13.336,0.5350691388917915,0.6564052076886789,46.169288824141894,23.131394582879274
172,13.384,0.5364075907122376,0.6586348778169689,46.145243230983674,23.131394582879274
173,13.428,0.5375951903770104,0.6607126927743537,46.123141138473734,23.131394582879274
174,13.474,0.5388424847697757,0.6628733884313666,46.10008037780785,23.131394582879274
175,13.52,0.5400687620418241,0.6650330595200036,46.07709214022819,23.131394582879274
176,13.568,0.5413177130812196,0.6673138897817464,46.05304755214757,23.131394582879274
177,13.616,0.5425397554875131,0.6696216054962127,46.02893312243804,23.131394582879274
178,13.662,0.5437040965850171,0.6718234128878384,46.00589893833313,23.131394582879274
179,13.708,0.5448259007032016,0.6740493457818518,45.98285245630867,23.131394582879274
180,13.756,0.5460618607375664,0.6763363367887335,45.958812963995555,23.131394582879274
181,13.8,0.5472526467107707,0.6783936193094029,45.93681461351145,23.131394582879274
182,13.848,0.5484881481489363,0.6806729232259089,45.91281978482479,23.131394582879274
183,13.894,0.5496306606135806,0.6828726473259842,45.8898622613529,23.131394582879274
184,13.938,0.5506873112625252,0.6850060148798526,45.867840524929505,23.131394582879274
185,13.986,0.5519090149924428,0.6872961345503542,45.843826553905714,23.131394582879274
186,14.032,0.553086375100213,0.6894821618402662,45.820842237706245,23.131394582879274
187,14.078,0.5542830708515522,0.6916635416572381,45.79782495392858,23.131394582879274
188,14.126,0.5554933095364458,0.693954017395857,45.77384337842095,23.131394582879274
189,14.17,0.5565360375370715,0.6960793661449557,45.7519070712652,23.131394582879274
190,14.216,0.5576423621362488,0.6983036660672217,45.728914287130905,23.131394582879274
191,14.264,0.5588156058030316,0.7006108921998936,45.70494650735932,23.131394582879274
192,14.31,0.5599819696109654,0.702797050277445,45.68199470290345,23.131394582879274
193,14.36,0.5612182628000882,0.7051944505254129,45.65702089935081,23.131394582879274
194,14.408,0.5624024832874487,0.7074903183073354,45.63308579731884,23.131394582879274
195,14.456,0.5635417253635335,0.7097974560725071,45.60921601854585,23.131394582879274
196,14.506,0.5646930294445054,0.7122174765454214,45.584354031093106,23.131394582879274
197,14.556,0.5659053238317935,0.7146097625640289,45.55947928397147,23.131394582879274
198,14.606,0.5670570426585485,0.7170227893796437,45.53465656107035,23.131394582879274
199,14.656,0.5681895448007713,0.7194400988184164,45.50986163692088,23.131394582879274
200,14.706,0.5693332895850011,0.721855637056614,45.48504630893586,23.131394582879274
201,14.758,0.5705829981508239,0.7243354938486448,45.45925493406538,23.131394582879274
202,14.808,0.5717729705915631,0.7267276191389168,45.43444520961622,23.131394582879274
203,14.856,0.5728547388841329,0.7290426936951379,45.41068894937553,23.131394582879274
204,14.906,0.5739223691175125,0.7314720502574935,45.3859954268332,23.131394582879274
205,14.954,0.5749170650353735,0.7338070527322235,45.36234991260859,23.131394582879274
206,15.002,0.5759352635664433,0.7361306036704394,45.3387120146253,23.131394582879274
207,15.052,0.5769664482648451,0.7385503645952378,45.314167499923656,23.131394582879274
208,15.098,0.5778746537932866,0.7407876298250594,45.29162056500395,23.131394582879274
209,15.146,0.5788722619813174,0.7430918301734217,45.26814883197704,23.131394582879274
210,15.19,0.5797163284264606,0.7452214186648173,45.24670273944189,23.131394582879274
211,15.236,0.5806376821592215,0.7474297953006501,45.22429475282382,23.131394582879274
212,15.282,0.5815056599016779,0.7496678330853026,45.20183819411549,23.131394582879274
213,15.33,0.5823546514890767,0.7520287032253219,45.17837929585075,23.131394582879274
214,15.376,0.5832129389543205,0.7542848298560785,45.15583690499072,23.131394582879274
215,15.424,0.5840606375975306,0.7566666550512899,45.13225451920706,23.131394582879274
216,15.47,0.5848384489387743,0.7589668697752255,45.109620644771184,23.131394582879274
217,15.516,0.5855916315179148,0.7612753012543079,45.08698655732659,23.131394582879274
218,15.562,0.5863136366604169,0.7635858838248503,45.0644000600186,23.131394582879274
219,15.61,0.5870604923003182,0.7660040155175601,45.0408006338014,23.131394582879274
220,15.656,0.5877519518469413,0.7683210664271515,45.01823165099726,23.131394582879274
221,15.704,0.5884698291619057,0.7707321457906893,44.99472924551301,23.131394582879274
222,15.756,0.5892809354856938,0.7733303106508076,44.969290655277696,23.131394582879274
223,15.81,0.5901875757990684,0.7760121048706026,44.942845568263195,23.131394582879274
224,15.864,0.591040875316607,0.778713943278844,44.91638462447067,23.131394582879274
225,15.914,0.5917994424872145,0.7812384711395637,44.89180355436438,23.131394582879274
226,15.964,0.5926023354928429,0.7837606997175071,44.86715269427999,23.131394582879274
227,16.014,0.5934727826475338,0.7862557072300362,44.842530308754164,23.131394582879274
228,16.062,0.5942971778966329,0.7886609031047944,44.818855899418885,23.131394582879274
229,16.11,0.5951463638161762,0.7910684361933542,44.79511525067403,23.131394582879274
230,16.162,0.5961151970664873,0.7936683682525004,44.769339066287486,23.131394582879274
231,16.208,0.5969512269338381,0.7959804648400466,44.746510369188286,23.131394582879274
232,16.258,0.5979054333420277,0.7984634335638771,44.72177585193288,23.131394582879274
233,16.304,0.5988506017258474,0.8007293903356741,44.69896907938627,23.131394582879274
