,t,x,y,energy
0,17.32,0.2910710657111664,0.0430744020572673,49.87274094311143
1,17.57,0.30804929012047644,0.04218300884059946,49.74585821914888
2,17.83,0.3257520856357654,0.04117276284680437,49.61364385191277
3,18.08,0.34279399238659575,0.039846260800269026,49.4862155277996
4,18.33,0.35986507104102466,0.038757115110068685,49.35879059117511
5,18.58,0.3769186774284769,0.03765489077767428,49.231442074955645
6,18.83,0.39408188423029056,0.03692468470271846,49.103738427745974
7,19.1,0.412631201181264,0.03619725118217116,48.96577723810196
8,19.37,0.43114210429648414,0.0354793583749066,48.82800335689998
9,19.63,0.4215369019478873,0.04676259711258714,48.69533221203881
10,19.89,0.411684977799565,0.0579914577733745,48.5623089393733
11,20.15,0.4021926109822365,0.06939319947830778,58.4292856667078
12,20.4,0.39275195194885437,0.0801838640395726,58.301497719309786
13,20.65,0.3832595439083974,0.09100566457487788,58.17340683606059
14,20.9,0.373571418841846,0.10170744251094857,58.04543256518413
15,21.16,0.3632609167087216,0.11273664007395404,57.912229318339634
16,21.41,0.3530374432898429,0.12322276412831437,57.7839028312506
17,21.67,0.342764775962707,0.13431623430485057,57.6504661768668
18,21.93,0.33227125599752705,0.14523157624629565,57.517347731773185
19,22.18,0.3221937561686854,0.1557553502961392,57.38923728892017
20,22.45,0.31159774339548907,0.1672168604840723,57.25117311016297
21,22.74,0.3003239649042377,0.1795845589463782,57.102872091956776
22,23.03,0.28870234644697934,0.1918066657944449,56.95437910809711
23,23.31,0.2771135175498737,0.20335329760506138,56.811274036214336
24,23.62,0.26481087634970923,0.216342889715621,56.65326870774243
25,24.04,0.24814104757008604,0.23403262158816265,56.438717321798215
26,24.47,0.23055835385316883,0.2518871928706873,56.21893688834228
27,24.8,0.21722798892449602,0.26576398298373594,56.04982824906085
28,25.08,0.20602009131407747,0.277585978341656,55.906380585844616
29,25.35,0.19544467255392348,0.28910792184479667,55.768054379593686
30,25.62,0.184452656293038,0.30044041318377634,55.62956265179162
31,25.9,0.17337064630689428,0.31243251267759053,55.48557114832259
32,26.18,0.16240438886758374,0.32447388518765974,55.34163479258947
33,26.46,0.15157005416132438,0.3366595980071468,55.19728696173769
34,26.76,0.13984990491360544,0.34971395873933436,55.04233884490614
35,27.05,0.12842056104541402,0.36225849277035815,54.89268211889903
36,27.33,0.11704920705046114,0.37417353553327903,54.74829400986077
37,27.61,0.10537829297141109,0.3859046181426823,54.60400800156178
38,27.88,0.09402719263482144,0.3971180224239116,54.46509981582212
39,28.17,0.08193255128430758,0.40929835509299994,54.315485528184475
40,28.44,0.07106872038020993,0.42088071294914886,54.17605117875009
41,28.7,0.060372211955257396,0.4319686533729641,54.04146675836824
42,28.98,0.04894173656433756,0.4438777489764032,53.89694408594033
43,29.25,0.03795907578793002,0.4553284356199335,53.7578657804101
44,29.53,0.02675413228960378,0.4673749674555068,53.61325138569655
45,29.8,0.015789647974206275,0.47884081066604567,53.474145193565725
46,30.07,0.037237508638342506,0.49015502500281194,53.33469519551034
47,30.34,0.04890684887357546,0.5012641592965742,53.19538032543211
48,30.61,0.060139289587076844,0.5126388682496168,53.0559879035994
49,30.9,0.07255993211366049,0.5245756608717588,52.90666440130736
50,31.17,0.06624532627599088,0.537853597799647,52.76763907158718
51,31.46,0.05946297185775316,0.5521150856110827,62.61831556929514
52,31.73,0.05310773726886241,0.5654503117716677,62.47887936191464
53,32.02,0.04665085712824038,0.5799226644644306,62.32879063438228
54,32.3,0.040938555843148046,0.59395504403267,62.18428064586627
55,32.58,0.03556582593182287,0.6080145873330073,62.040066494116694
56,32.87,0.030490542758887487,0.6227241357907701,61.890406541921735
57,33.16,0.02493527488285579,0.637400097640237,61.74035077805245
58,33.44,0.019091324399379623,0.6514308508923197,61.595664261506336
59,33.74,0.02866981121908998,0.6664855281422116,61.44074591857985
60,34.01,0.03438691757493093,0.6799789557916184,61.30132982415847
61,34.28,0.0398537686604495,0.6934904011115572,61.16215992044032
62,34.54,0.044904249755071686,0.7064881613841831,61.02851850955942
63,34.8,0.0496717391926377,0.7195443318965675,60.8948867985916
64,35.05,0.05437818464131675,0.7320179826313964,60.76673274621393
65,35.32,0.06391306712243458,0.7440544429420795,70.62832636964606
66,35.57,0.07276692200143205,0.7135959504776148,70.50035905279188
67,35.83,0.08152647114595274,0.7017887799663923,70.36688797456891
68,36.08,0.08988819085415557,0.6904664727204308,70.2388643538287
69,36.34,0.09834342804268445,0.6785288052012702,70.10535731317941
70,36.59,0.10680045893482563,0.6672529185564465,69.97737012469982
71,36.85,0.11533667964670337,0.6553920208834871,69.8441127210421
72,37.12,0.1240023414745255,0.643042619662722,69.70599653524422
73,37.39,0.11563209163605852,0.6305791307822326,69.56788034944636
74,37.66,0.10702389682050345,0.6181575744122332,69.42948279753624
75,37.93,0.09889424052784689,0.6054940917539156,69.29072861537432
76,38.2,0.09050759411626573,0.5928613896697046,69.15160886047596
77,38.46,0.08229019723044449,0.580711850856527,69.01742438293809
78,38.73,0.074078743784219,0.5679392142922899,68.8778704328953
79,39.0,0.06643388382116762,0.5550402495613287,68.73872598640324
80,39.28,0.05833495027217341,0.541775383007141,68.59474303988499
81,39.56,0.04991943522207213,0.5285616905552761,68.45041290907105
82,39.82,0.04175948404154648,0.5163505757050835,68.31600068966516
83,40.09,0.03364045141192894,0.5035896980350841,68.17670645689351
84,40.36,0.025432967253081796,0.49078845594567716,68.03699582359246
85,40.63,0.017545064287863028,0.47792470450097485,67.8975760627519
86,40.9,0.03164954953129963,0.46497162079309967,67.75834069602988
87,41.17,0.03936150787315938,0.4520556798185373,77.61896580184717
88,41.44,0.047535709803089965,0.4393434982660615,77.4798380255126
89,41.71,0.05551694687977101,0.42649978009643325,77.3403463933264
90,41.98,0.06335842034323985,0.41366157262262815,77.20116817727464
91,42.25,0.0713355065506486,0.40090804643048666,77.06220787568958
92,42.51,0.0788485077024945,0.3885586494586149,76.92833788078623
93,42.78,0.08618466723388968,0.37559587518133036,76.78940931058371
94,43.05,0.09321109772936431,0.3624874628695851,76.65018702091923
95,43.37,0.10169491544113979,0.34707171487415034,76.48561209905776
96,43.68,0.11023904324620168,0.3322186311480257,76.32604988367619
97,43.99,0.11846770034041655,0.31731652760727846,76.16678834866939
98,44.26,0.12587170487661473,0.30441445281590773,76.02808900254902
99,44.54,0.10784853762310637,0.2989862528631212,75.8842526436094
100,44.81,0.09046905491436616,0.2937519171943627,85.74555329748904
101,45.09,0.07243095650463595,0.28830249853075623,85.60159977283124
102,45.35,0.05547819585869105,0.283512690053477,85.46764859217369
103,45.62,0.045948533343095205,0.2956779154127845,85.32854544302931
104,45.89,0.03641887082749936,0.30784314077209196,95.18944229388494
105,46.17,0.01726013884933769,0.3050816706743661,49.8557448823688
106,46.45,0.04340899861605005,0.3018810207736866,49.71165082384977
107,46.73,0.06221955779526144,0.29825632251922335,49.56781731349888
108,47.02,0.08185358252931964,0.2948112550776206,49.41861135239443
109,47.29,0.10009946716001748,0.2913666265119202,49.27949623089351
110,47.56,0.11839077908979363,0.2881503558984213,49.14051442069665
111,47.83,0.13674066705449006,0.2850560705795383,49.001433307977216
112,48.12,0.15653439049188148,0.2820976632644246,48.85213735464749
113,48.41,0.17630460517691982,0.27900542728345623,48.702780839660534
114,48.69,0.19544133440208686,0.27609474295623854,48.55844431386357
115,48.97,0.21470231234337794,0.27329224047764805,48.4136575288544
116,49.25,0.23394963631178448,0.2705924827793433,48.26905818575327
117,49.52,0.2526254921108286,0.26822535904723227,48.12934013595033
118,49.82,0.27339727393266666,0.2653555539854716,47.973732637447476
119,50.11,0.2935061485708204,0.26275938075682437,47.82337251303385
120,50.4,0.3135109468870443,0.2600329237231106,47.673359050382544
121,50.68,0.33279705251610203,0.257409675571314,47.52866533215269
122,50.98,0.3534688073398743,0.25463907291845095,47.37364360583376
123,51.27,0.3734267384387636,0.2517042317711859,47.2236036653669
124,51.57,0.39394510583056497,0.24827560113696615,47.06847525031812
125,51.9,0.41637523648110236,0.24428428054959417,46.89817386796712
126,52.21,0.4374460000873494,0.24042408009748373,46.738027665239265
127,52.5,0.45697329796674707,0.23655210022019943,46.588658334536255
128,52.79,0.46640756991883414,0.2231574545372114,56.439289003833245
129,53.1,0.4771008862296745,0.2090067471154769,56.27915766128578
130,53.41,0.4878522867182639,0.19482356101328166,56.11870791560035
131,53.75,0.49973581718351917,0.17921499506003657,55.942219258745666
132,54.1,0.5114016572799377,0.16280886414017315,55.75995886341229
133,54.41,0.5215769038808711,0.14820629787876166,55.59847663298523
134,54.71,0.5318920700165201,0.13421164998044693,55.441910945320544
135,55.0,0.5420481759463502,0.12075419064146184,55.29052600650706
136,55.3,0.5522711531375738,0.10664665929023483,55.13353949042856
137,55.59,0.5621927321570371,0.09297832467497683,54.98152097459237
138,55.88,0.571531089228559,0.07916034974799871,54.82995697264283
139,56.17,0.5813620267317804,0.0654526564001861,54.67792398483158
140,56.48,0.5913480923900184,0.05051498019737265,54.51494644511156
141,56.77,0.6003980674634726,0.03637470348855504,54.36214497187844
142,57.08,0.6095914841816753,0.021177800047708126,54.199309190183875
143,57.61,0.624734162733743,-0.004928596199874844,53.9213047540944
144,58.14,0.6408329139426593,0.06188233924853752,53.64375725355721
145,58.45,0.6503353983887096,0.07683496700602206,53.48171338484246
146,58.73,0.6583935124033503,0.09045811236786658,53.335720486013976
147,59.0,0.6665449453777303,0.10349273412247181,53.19477606124764
148,59.28,0.6753967715660453,0.11687691004779968,53.04854818080605
149,59.57,0.6840357092520664,0.13085854473870104,52.89750671848704
150,59.85,0.692284502686757,0.14438153572329493,52.751722271285004
151,60.13,0.700661672048167,0.1579192130738416,52.6055945763651
152,60.41,0.7092402375145177,0.17141931229893698,52.459273077264605
153,60.7,0.7184766906064541,0.18522943994703064,52.30797414770901
154,60.98,0.7277312831730832,0.19846766396393695,52.1616999008176
155,61.27,0.7378355586501757,0.21198647375511842,52.01009495832088
156,61.56,0.7476991456827319,0.22559144530348477,51.85856569043069
157,61.83,0.7565721159656916,0.2383901458952491,51.717440301075385
158,62.11,0.7656271027104928,0.251794688561298,51.57065886181303
159,62.4,0.7746847679393439,0.2657603189629549,51.41884773154968
160,62.68,0.7835344272013561,0.2791647710234907,51.27250819791169
161,62.96,0.792882219141002,0.2924051774576024,51.126013056142796
162,63.24,0.8025771566977157,0.3055360709398635,50.979340699694745
163,63.54,0.8132197157421585,0.31957239833187223,50.82177375149875
164,63.84,0.8234179513801205,0.3337694278044965,50.66433998937263
165,64.17,0.8351456474701389,0.34927086150982656,50.4906247493764
166,64.47,0.8456127777747888,0.3634282382292004,50.332794608899746
167,64.76,0.8557771596131307,0.3770865599483708,50.18026956819103
168,65.04,0.8657730872003327,0.3902722696936173,50.03258424983454
169,65.33,0.875686627451674,0.4041267128507341,49.87953625908854
170,65.63,0.8778001950642348,0.3879384930400711,49.72121075142026
171,65.92,0.8796830367022701,0.372232457395829,49.56786879325448
172,66.2,0.8819055533142788,0.3570983589342852,59.41981448881857
173,66.5,0.8842536047708338,0.34083242277243675,59.26087879138769
174,66.79,0.886212549878453,0.3250828775267914,59.10722621136511
175,67.08,0.8879360868758557,0.30937314130306,58.9539262484768
176,67.39,0.8896522502372705,0.2925978886080825,58.790216185403665
177,67.7,0.9116775442980584,0.2894058047309779,58.62650612233053
178,67.99,0.932281851645247,0.28641966174917033,68.47335799881051
179,68.28,0.9527403877614445,0.283236856529027,68.32064873226706
180,68.58,0.9738627644282937,0.2801326181045992,68.16310777897034
181,68.87,0.9942427816900221,0.2772199635759139,68.0111055943367
182,69.16,1.0147136314945435,0.2745244708042852,67.85892478781648
183,69.46,1.0359214847781029,0.27200942681025936,67.70163700129308
184,69.75,1.0564620367835025,0.2700458319521096,67.54982681433681
185,70.05,1.0776828840465826,0.2681512217548345,67.39302219861034
186,70.34,1.0982812623349743,0.26654490468798214,67.24119909561541
187,70.64,1.1195989637691857,0.26472686363136944,67.0839893413701
188,70.93,1.1401300246559403,0.2627567189617532,66.93221903473591
189,71.25,1.1626340410867664,0.26030156113968983,66.76522249538698
190,71.55,1.183835501915533,0.25801357370835354,66.60818201835822
191,71.85,1.2051032636910197,0.25588814922038094,66.450969105139
192,72.16,1.2236395145924066,0.24676531591003797,76.28851576147912
193,72.45,1.241247905257958,0.23858905570089947,76.13669013821725
194,72.75,1.2596303299357234,0.2302363491971214,75.9792988160513
195,73.04,1.2777239573235868,0.22254978659063268,75.82706677855025
196,73.34,1.296246456295312,0.21433693902406808,75.66955820768285
197,73.65,1.3155093026942624,0.20586452746553713,75.50633698427224
198,73.95,1.2911190919868396,0.19726248381928005,75.34815389196356
199,74.26,1.271720880304983,0.18879682918305551,75.18439343953845
200,74.6,1.2507506100498194,0.1790464012414763,75.00450663068638
201,74.91,1.2316774198257545,0.1700728583049228,74.84040004231419
202,75.2,1.2141955514721672,0.16129080415842764,74.68698512904646
203,75.49,1.1964964314982869,0.1527971967689663,74.53370898092778
204,75.77,1.179349230171741,0.14455692124188937,74.38534566609415
205,76.06,1.1617001204365218,0.13577702637405795,74.23127044207406
206,76.35,1.1441172290203732,0.126923697642026,74.07719873138258
207,76.62,1.1274794015104592,0.11890483210148269,73.93346597975554
208,76.92,1.109014887668952,0.10983817404803202,73.77330522382157
209,77.2,1.091602630881657,0.10149843506486793,73.62352713774321
210,77.49,1.073259278979428,0.09319442062591345,73.46826507188388
211,77.77,1.0557835838455663,0.08481834311336481,73.31810517117216
212,78.05,1.0380576333752647,0.07660538181888107,73.16748359050932
213,78.33,1.0203523316930176,0.06845199465204707,73.01714634613245
214,78.62,1.002107989702842,0.05991227010323671,72.86150015538068
215,78.9,0.9842952995585311,0.05200416114626769,72.71153201858894
216,79.19,0.9656029383152799,0.04425129750193233,72.55658486949505
217,79.49,0.9466132184897407,0.035916984864985034,72.39674910450826
218,79.78,0.9283520113069235,0.02767355735992663,72.24202490277908
219,80.07,0.9098984786223697,0.019607174325189138,72.08708386182491
220,80.39,0.8893740785832845,0.011047588881035325,71.91651982464222
221,80.81,0.8623292532702045,0.031256121402767185,71.69276434300842
222,81.23,0.8349125982906128,0.04173284404568612,71.46915188429817
223,81.53,0.8152832766823178,0.049230241803147626,71.30919122889931
224,81.84,0.7950924135969432,0.05707575982516686,71.14400746230365
225,82.13,0.7759630303535091,0.0641085695916029,70.98933011917454
226,82.53,0.7494759115461215,0.07353634605485568,70.77630023385971
227,82.96,0.721072993165306,0.08399069886435546,70.54671007595742
228,83.32,0.6972359934317995,0.09268435094919418,70.35441098900093
229,83.65,0.675508713606313,0.10098337894096668,70.17772601497896
230,83.97,0.6544039478135382,0.10913925003155071,70.00592571447935
231,84.28,0.6339912038225989,0.11714645158849904,69.83931945263879
232,84.58,0.6142070907015089,0.12473703805500283,69.67842587980041
233,84.92,0.5915970845922305,0.13288823488130497,69.4965553509321
234,85.24,0.5702105906268072,0.14050840851213264,69.3250641269399
235,85.54,0.5499821939854012,0.14718687784976256,69.16475111023746
236,85.84,0.5295845836589159,0.15354903220023966,69.0044879215963
237,86.15,0.5083920120507218,0.16003731734271268,68.83858161020504
238,86.45,0.4879706869305932,0.1666661802731705,68.67754687333412
239,86.75,0.46756935526695326,0.1733986759961021,68.51633481158765
240,87.05,0.44737320548676496,0.1804924647681159,68.35506346452453
241,87.35,0.4269932001006443,0.1871409359797493,68.19416072357961
242,87.65,0.40638590883290343,0.1935589042872632,68.03283104546057
243,87.95,0.3861136744387166,0.20036991883605054,67.8719814267437
244,88.25,0.36592607680090866,0.20735867976592676,67.71103070059326
245,88.55,0.345860783531194,0.21453212044872444,67.55010948695808
246,88.86,0.3250023110274885,0.22187389779081582,67.3834784030541
247,89.15,0.30554436150287334,0.22886169270389572,67.22750735314825
248,89.45,0.28550934441197723,0.23610666411081635,67.06651927882905
249,89.75,0.26561932999799404,0.24340896785944333,66.90599690574079
250,90.05,0.2457511563820015,0.2508638108138744,66.74513547800304
251,90.34,0.22628825833053778,0.25767920889327844,66.58961460567623
252,90.65,0.20523977125126983,0.2644674041959452,66.42360429389194
253,90.96,0.18405239163478246,0.2709048848216591,66.25784355336675
254,91.28,0.1619840979582138,0.27710255488252167,66.08689250161582
255,91.59,0.14050723128612694,0.2831300393034769,65.92078948537807
256,91.9,0.11905961626589728,0.28902702001640157,65.75510823935912
257,92.2,0.09811149905186242,0.2944959996566504,65.59441409674498
258,92.53,0.07501158270947567,0.30061141384339585,65.41718166679911
259,92.85,0.05274873316853636,0.30688327318092834,65.24518948549459
260,93.17,0.030388901509463287,0.31299389815452144,65.07311878642325
261,93.49,0.008145031888598246,0.319535813666337,64.90059226658452
262,93.82,0.056256991531156125,0.32661967280223037,64.72277198098982
263,94.14,0.07841985914279229,0.3333285872157642,64.55021161882387
264,94.47,0.10104228463506013,0.3405695017664094,64.37250082973507
265,94.78,0.12245299411714078,0.3469397106276379,64.20590528994008
266,95.17,0.14939920695908063,0.3551778121108734,63.99573728571612
267,95.5,0.17193585888813864,0.3625153099091631,63.81816027862145
268,95.82,0.19373163318345102,0.36975189103286044,63.64590710756377
269,96.15,0.21611934519404227,0.3773018988434946,63.468434337965974
270,96.49,0.23928070603879822,0.3847627181572873,63.28598401136699
271,96.82,0.2616655706726962,0.3921917134189727,63.10883923220131
272,97.19,0.28656538558501954,0.4007523237363449,62.91048301319032
273,97.53,0.3093716371323223,0.4087616580099421,62.728150614472405
274,97.87,0.3320654624592835,0.4168438824496765,62.54610735187041
275,98.2,0.3539277343239788,0.4251330962905727,62.368872967165494
276,98.53,0.37585732116009046,0.43328712940557007,62.19173696779093
277,98.87,0.39832318304874564,0.44196867951112706,62.00897301524682
278,99.21,0.4211848854096463,0.4501678130030654,61.825880445325254
279,99.55,0.4439313166938448,0.45859548885941914,61.64264607301295
280,99.88,0.4658686170998238,0.4669942815382397,61.46477297492966
281,100.22,0.48844005921761713,0.4757190450833676,61.28143184631937
282,100.57,0.5117261477861544,0.4845158498986722,61.093017430172836
283,100.93,0.5357386185982943,0.4935695439076169,60.89894194073154
284,101.26,0.5576271286125744,0.5019317429817816,60.72138386769984
285,101.61,0.5805389741298393,0.5110590945048996,60.53359291418924
286,101.99,0.6051753293606724,0.5212690980363526,60.3298001911156
287,102.44,0.6346523003650014,0.5327232854209722,60.089109835743876
288,102.85,0.6614986736161266,0.543160864832162,59.86985405542033
289,103.2,0.672100782058329,0.5255087293049341,59.68268448685145
290,103.55,0.6827028905005313,0.5078565937777062,69.49551491828258
291,103.9,0.6927132398602784,0.4900360216433167,69.30849192132465
292,104.25,0.703394894334826,0.4723734331613717,69.12110412352787
293,104.6,0.6919226184020886,0.4549919880343631,72.26704965906443
294,104.93,0.6815007285573582,0.43855213379264013,72.09089974005728
295,105.28,0.6699978428130593,0.4212368660272244,71.90382592092143
296,105.65,0.658312716702728,0.40276329703326147,71.70608748767934
297,106.0,0.6616614867967898,0.3835853496409386,81.51903761839627
298,106.34,0.6643875213395495,0.36497831211233367,81.33778043004567
299,106.68,0.6676941585856869,0.3463772191997153,81.156224621162
