,t,x,y,energy
0,24.8,0.2219319377290329,0.04789644297824478,49.817336278812455
1,25.08,0.22951401920757536,0.06109291501712668,49.66261251285737
2,25.35,0.23697743073858335,0.07369390573097688,49.51385000644657
3,25.62,0.24440152093219442,0.08629231388308226,49.36517907189095
4,25.9,0.2517562313548045,0.0994032211117547,49.21138672584387
5,26.18,0.25903803052402197,0.11259820868764323,49.0572325507441
6,26.46,0.2667588773412905,0.1257198877455462,48.90268129669015
7,26.76,0.27537371664798493,0.13969199898088186,48.73692016465538
8,27.05,0.28386655014722656,0.15316967769943662,48.5765150329857
9,27.33,0.291554215432776,0.16638068592857003,48.42150427404291
10,27.61,0.29930168926552086,0.1531893454080196,48.26649351510012
11,27.88,0.30677246760423915,0.14046912419177454,48.117018854691004
12,28.17,0.3147966369310106,0.12680666436691873,57.95647199721454
13,28.44,0.32202097629869625,0.11404157143114454,57.80720327809419
14,28.7,0.3290473826372405,0.10174406399445865,57.66330131652034
15,28.98,0.3368292886918647,0.08862493031424978,57.50864622655193
16,29.25,0.34446040042077797,0.07596933947826719,57.35923560171668
17,29.53,0.3524311952655697,0.0628554224838164,57.20423864051505
18,29.8,0.35971896694547323,0.05011141582162635,57.05497455740383
19,30.07,0.3669069511190352,0.037292221714729915,56.90545480430437
20,30.34,0.374350492304829,0.024603743540335697,56.756218755891695
21,30.61,0.3819807495202692,0.011912517866692323,56.60660196644948
22,30.9,0.39028520594098964,0.03287360198100559,56.446240026148544
23,31.17,0.3983119075555099,0.04532207642985249,56.29722546843259
24,31.46,0.40656996020617975,0.05886465462551298,56.13691883068765
25,31.73,0.41385216429433597,0.07158620307342897,55.987797371373695
26,32.02,0.4217190469939995,0.08526629311551442,55.82744874997882
27,32.3,0.42982999822122014,0.09833573896990445,55.67242882267294
28,32.58,0.43840462296835436,0.11123663687653411,55.51741452869164
29,32.87,0.44734817389310705,0.12452340576288852,55.357157409687304
30,33.16,0.45595633308697564,0.1379568389778286,55.196769740844104
31,33.44,0.4639627561133043,0.1510916580478588,55.04158006703259
32,33.74,0.4730824064111759,0.16490387989905902,54.87569565819171
33,34.01,0.4811242714613806,0.17739141225803576,54.72642436478822
34,34.28,0.4892842853894771,0.18985744428212842,54.57702849683883
35,34.54,0.4976391011096049,0.20169155799102184,54.433052213072294
36,34.8,0.505788043442901,0.21361083762045116,54.28904922067647
37,35.05,0.5140719913463152,0.22495246925314646,54.150250667473074
38,35.32,0.5229308723930232,0.23720980221643911,54.00050280501463
39,35.57,0.5309858811459662,0.2486637384609079,53.86159150483632
40,35.83,0.5398416345011864,0.2604035203187736,53.71699001326272
41,36.08,0.5483101442216557,0.2716399030608883,53.57834927049855
42,36.34,0.5569942341822898,0.2833136321886003,53.434519938295246
43,36.59,0.5656893920018253,0.294420826512499,53.29605251281445
44,36.85,0.5749887920358597,0.30583402613573496,53.152173050850735
45,37.12,0.5842010460734846,0.31788214997784847,53.002768491725774
46,37.39,0.5931075072578935,0.3300000013848626,52.8536943792143
47,37.66,0.6021147295949013,0.3421425746807508,52.7042475417849
48,37.93,0.6109883026300537,0.35440792057741566,52.554420979366434
49,38.2,0.6200503213721635,0.36662665890226226,52.4044202973304
50,38.46,0.628379704077825,0.3785992898684839,52.2597160988452
51,38.73,0.6371920054663774,0.3909834613946092,52.10935922611281
52,39.0,0.646401029569434,0.4032297243311159,51.95886002916674
53,39.28,0.6555172431914631,0.4161405263968086,51.80260097809608
54,39.56,0.6641353796442703,0.42928598412924934,51.646091324871364
55,39.82,0.6718668683474259,0.4416490319567812,51.500421100057096
56,40.09,0.6803395477152031,0.45436827888215714,51.34890691931253
57,40.36,0.6885465537955114,0.4672212500413419,51.197184345777686
58,40.63,0.6969368774191449,0.47999160681917596,51.0455528503512
59,40.9,0.7048980320486433,0.49298092109832864,50.893541627613615
60,41.17,0.7131826472236706,0.5058852656300341,50.74136140860717
61,41.44,0.7219307152980297,0.5186658182942057,50.58889994466204
62,41.71,0.7304310108231445,0.5315069921646489,50.43662816903933
63,41.98,0.7388911415608065,0.5442860340859059,50.284798289598385
64,42.25,0.7397306027543477,0.5300323401527754,50.13296841015744
65,42.51,0.7406149557944843,0.5163210285349542,49.986837496039165
66,42.78,0.7414233770017113,0.5020786092031901,49.835086162147114
67,43.05,0.7422317982089385,0.48783618987142613,59.68333482825506
68,43.37,0.7438182701167876,0.4710000455907397,59.503590555581106
69,43.68,0.7458983203899298,0.4547386415315418,59.329556932314254
70,43.99,0.7481600380882872,0.4385499339435663,59.155899170726784
71,44.26,0.750601850497548,0.4244274375482502,59.00424112041345
72,44.54,0.7535351738838756,0.40976433856940037,58.84658824373716
73,44.81,0.7563637520522036,0.3956906996681725,58.69498211309559
74,45.09,0.759430957958571,0.38105974457002334,58.537434988788974
75,45.35,0.7617083388957908,0.367464077777332,58.39146283757148
76,45.62,0.7635790284307995,0.35329633269741023,58.23982845731384
77,45.89,0.7487169501935036,0.34443926278604037,58.0881940770562
78,46.17,0.7333044246140854,0.33525415324832347,67.93094360864087
79,46.45,0.7182123722370463,0.3256888211892952,67.77334042898593
80,46.73,0.7028496510498647,0.3163316775942426,67.6155867914992
81,47.02,0.6868154643731766,0.30667219883712776,67.45186862185437
82,47.29,0.6715099743869204,0.2979342740691574,67.29902227131264
83,47.56,0.6559316159208978,0.28956327506669954,67.14651756925906
84,47.83,0.6402796825458844,0.2813574307093363,66.99433520105823
85,48.12,0.6238003560686043,0.2722980496430826,66.83126060382288
86,48.41,0.6073568823739439,0.2632610941195562,66.66840965396449
87,48.69,0.591326024259993,0.2546477755218621,66.5109947358234
88,48.97,0.5754553706689808,0.24591185663824805,66.35374174825927
89,49.25,0.5596300176096215,0.23710316981610813,66.19638716307003
90,49.52,0.5444600150527211,0.22847057443985563,66.04446647760679
91,49.82,0.5277483411693588,0.2187471093786694,65.87570062751097
92,50.11,0.5112294296751765,0.20971992057431565,65.71259418818205
93,50.4,0.49438679907096983,0.20108393332156432,65.54966221103462
94,50.68,0.47779596061087715,0.19309675973451626,65.39227300916964
95,50.98,0.4601711568678161,0.18441009433650984,65.22380032177264
96,51.27,0.4428408378811314,0.1763535283018564,65.06093058634818
97,51.57,0.4248729268787502,0.16807579021427738,64.89247163485996
98,51.9,0.40495291522735144,0.15904064675535295,64.70676460899841
99,52.21,0.3864785077261674,0.15026911862353742,64.53232900285063
100,52.5,0.36901015010164534,0.1424111920644973,64.36955541483557
101,52.79,0.3516127110124856,0.1343939339151085,64.20654362935257
102,53.1,0.34084776104423475,0.14863500989643316,64.03228965176729
103,53.41,0.3300828110759839,0.16287608587775781,63.858035674182005
104,53.75,0.3182760917559669,0.17849533050243646,73.66691840844331
105,54.1,0.3063363445544447,0.19471534736102358,73.46989245909884
106,54.41,0.295235101175366,0.20876771369463296,73.29587388631339
107,54.71,0.28457114537794503,0.22248309228892485,73.12701966146342
108,55.0,0.27480198461739686,0.2359121384617267,72.96411376629753
109,55.3,0.26448202518417124,0.24970187792692017,72.79566648651857
110,55.59,0.2540092629841089,0.2628536481264897,72.63262658958217
111,55.88,0.243104702847922,0.2758904385715842,72.46913212521001
112,56.17,0.2319799682774234,0.2887646890767405,72.30594656707723
113,56.48,0.22005510865403502,0.3025585648257632,72.1312504402661
114,56.77,0.2091382056209369,0.3155146617814151,71.96816143357113
115,57.08,0.19781481996504496,0.32949454718914006,71.79399206366674
116,57.61,0.17818261796313203,0.35342073333222057,71.49539838161914
117,58.14,0.15766690984039813,0.3767841938427964,71.19756475898868
118,58.45,0.1459865297659602,0.3906076727833028,71.02334243609883
119,58.73,0.1353636202309321,0.40310125942017905,70.86575016796178
120,59.0,0.1255637108182401,0.41537806602337995,70.71365661905425
121,59.28,0.1158243671302615,0.4283524738934309,70.55560646198387
122,59.57,0.10556426965218063,0.4417345292128442,70.39181114608331
123,59.85,0.095097472526245,0.4544813458027607,70.23324351900003
124,60.13,0.0846537474151677,0.46725982704965113,70.07456119930691
125,60.41,0.07456595368343924,0.4802234711389657,69.91573895756332
126,60.7,0.06451479511290788,0.49375609714336094,69.75159900598197
127,60.98,0.05439810100892477,0.5066020881768437,69.59335586158922
128,61.27,0.04430912323534382,0.5200009242754349,69.42987391509845
129,61.56,0.03415432691229385,0.5334037959584779,69.26621377663872
130,61.83,0.024801807472223138,0.5459557799903282,69.11367125919556
131,62.11,0.015168573146060156,0.5590493955833293,68.95520266384995
132,62.4,0.036310138809039334,0.5726795554189249,68.79106732618682
133,62.68,0.0458169086759104,0.585906973997336,68.63213758428238
134,62.96,0.05581970225335529,0.5988737030157105,68.4735032611374
135,63.24,0.06625281762187024,0.6116030533209805,68.31511556201129
136,63.54,0.07746393288707067,0.6252354119718092,68.14536592035644
137,63.84,0.08826340834251965,0.6391322418075592,67.97518082827354
138,64.17,0.100411011344275,0.6543600707055242,67.78764605286763
139,64.47,0.11160016213179794,0.6681135749090387,67.61729065904161
140,64.76,0.12192381201399943,0.6815885999469995,67.45282746464126
141,65.04,0.1317231708477389,0.6947126269004169,67.29380132236346
142,65.33,0.14162521900269884,0.7083239088507424,67.12956608916762
143,65.63,0.1513998984307971,0.7226382143684292,66.95939740382056
144,65.92,0.16098595184574518,0.7364027632539726,66.79501124583923
145,66.2,0.17010704268260868,0.7190217553068698,66.63638808347018
146,66.5,0.17997472106365311,0.7047718092947871,66.46638086441105
147,66.79,0.18988047923645252,0.6910667796408012,66.30161004313038
148,67.08,0.2003546215967352,0.6775170263238407,66.13637152947365
149,67.39,0.211743240632286,0.6630367040157281,65.95929324634147
150,67.7,0.22282797585755812,0.6484323897389777,65.78225974366445
151,67.99,0.23364683712075326,0.6350204071825343,65.61693662548593
152,68.28,0.24504408369903577,0.6218156490910589,65.45126458730651
153,68.58,0.25673810231766675,0.6081301742378173,65.27999329675514
154,68.87,0.2678835515187324,0.5949034514936014,65.11485409650555
155,69.16,0.278760134986032,0.5815786529938887,64.94986358405035
156,69.46,0.2900368621065793,0.5677237027049942,64.77873500476288
157,69.75,0.3014379921020925,0.5546149272599952,64.61356790059249
158,70.05,0.31294527484748247,0.5409991583757265,64.4431545683882
159,70.34,0.3242531999743051,0.5280125972563352,64.27888699204972
160,70.64,0.3357921864753767,0.5144979374250677,64.10893764138304
161,70.93,0.3468592446313883,0.5013509811237646,63.944430999779264
162,71.25,0.35955319182384715,0.4871576634868264,63.763326809378
163,71.55,0.370932789480667,0.4735924046592476,63.59351405447971
164,71.85,0.38197325620097716,0.4599393656792553,63.4240788942195
165,72.16,0.3935426190462274,0.44583792870636546,63.24862992837267
166,72.45,0.4044351831854821,0.4326415313560588,63.08429899373228
167,72.75,0.4156928896256921,0.4190057727750607,62.91441327386043
168,73.04,0.4268024927308561,0.40593169609382385,62.75019111731233
169,73.34,0.4378230416325794,0.3922204866701752,62.58048684380339
170,73.65,0.45571795183900204,0.4018930542427664,62.40512576117749
171,73.95,0.47303560687747553,0.4112536035065643,62.235421487668546
172,74.26,0.4909305170838981,0.42092617107915553,64.06006040504263
173,74.6,0.5106201662032763,0.43147287912714993,63.86771428198001
174,74.91,0.52861855707935,0.4410696845347101,63.69223152782592
175,75.2,0.5453704351116022,0.45007833287850935,63.528288314847835
176,75.49,0.5618580885539955,0.4593306276943402,63.3644467964441
177,75.77,0.5777204225096926,0.46837611900970344,63.20604000486245
178,76.06,0.5938501028837015,0.4779529304038438,63.042293318789966
179,76.35,0.6103102261901933,0.4872524619516379,62.878375971671915
180,76.62,0.6258036306741211,0.4957980422220675,62.725544902204476
181,76.92,0.6426427572344001,0.5055741373330793,62.556089158839455
182,77.2,0.6587395854384153,0.5143867351567344,62.39767027524894
183,77.49,0.6754083132128018,0.5234737988866053,62.23375690754214
184,77.77,0.691305566864358,0.5323589201023116,62.075833467524205
185,78.05,0.7068289940556264,0.5415145381256431,61.9182824371197
186,78.33,0.7226440569530905,0.5503558857474905,61.76084273592768
187,78.62,0.7390331495991643,0.559379942563083,61.59825109206387
188,78.9,0.7548633326883848,0.5680180933925757,61.44152412386097
189,79.19,0.7711410970328682,0.5771068900486125,61.27911586466479
190,79.49,0.7880632395628253,0.5863993820227176,61.111203571392224
191,79.78,0.8041153015214509,0.5955837106901429,60.949292527268014
192,80.07,0.819888886599045,0.605146383678885,60.7869371179361
193,80.39,0.8368984214930018,0.6161283512139335,60.60748198252311
194,80.81,0.8594133989792989,0.6302705770082973,60.372377176404605
195,81.23,0.8823523546722023,0.6441371471689001,60.136819899010185
196,81.53,0.8988844308977876,0.653884718982148,59.968638519012515
197,81.84,0.9161347493526952,0.663758610634656,59.79499507516769
198,82.13,0.9322837814811034,0.6730532624032829,59.63228531385066
199,82.53,0.954764883212988,0.6857089510075116,59.40770478380105
200,82.96,0.9791996497582013,0.699207058458905,59.165657693721464
201,83.32,0.999493859914489,0.7106857479188277,58.9629596093702
202,83.65,1.0178843671674052,0.7215321703907311,58.77669483277345
203,83.97,1.0356390373453388,0.7320745325689421,58.596272834842814
204,84.28,1.053225944275236,0.7419575825442035,58.421305373795406
205,84.58,1.070073860138162,0.7170356048974615,58.25189173467063
206,84.92,1.0895275237448478,0.7063212221028016,58.05983358080591
207,85.24,1.1082342041207391,0.6965460418055257,57.87867212829177
208,85.54,1.1258668820944726,0.6875668271560348,57.7091279564467
209,85.84,1.1283407036378628,0.6716900662556305,57.53958378460163
210,86.15,1.1308969858993656,0.6552840799918795,67.36438814036173
211,86.45,1.1330082052536274,0.6393978022270884,67.19497074691802
212,86.75,1.1346072521715407,0.6235366426225698,67.02592813003095
213,87.05,1.1356303363256086,0.6075971998937915,66.85655612972938
214,87.35,1.1361307974469377,0.5917138946030711,66.68763316193184
215,87.65,1.1360150433807312,0.575757204735056,66.51826740132573
216,87.95,1.1357410956701852,0.5598377803953147,66.3491331663623
217,88.25,1.13583133520618,0.5439674671814135,66.18032080422168
218,88.55,1.1356829902654402,0.5280223341113142,66.01102803440186
219,88.86,1.1359377947811944,0.5115760285153066,65.8362817578233
220,89.15,1.1362838023262083,0.49618360643670256,65.67275620438637
221,89.45,1.1360526527532842,0.48023587862292294,65.50344328198258
222,89.75,1.1353599940675136,0.46424147594276954,65.33378369138443
223,90.05,1.1348158329451927,0.44822733736609965,65.16401849280025
224,90.34,1.1341333128020685,0.4326890029677042,64.99951915107349
225,90.65,1.133710510861478,0.4160110220355843,64.82327796659312
226,90.96,1.1329461228327338,0.39940618910919334,64.64746090140795
227,91.28,1.1323086295518536,0.3823019802349191,64.46622700853898
228,91.59,1.1110012656682038,0.3778982933907795,64.29065667482216
229,91.9,1.089693901784554,0.37349460654663996,69.11508634110534
230,92.2,1.0689421020740548,0.3693109057629478,68.94470026017542
231,92.53,1.0460183787021615,0.3647893160421473,68.75695915398958
232,92.85,1.0237453869858997,0.3606663173307225,68.57511634435181
233,93.17,1.0014377617068195,0.3565409271747431,68.39310846661729
234,93.49,0.9792078588441872,0.35234398627478514,68.21135188254694
235,93.82,0.9565305887396646,0.3475573693103822,68.02430677128976
236,94.14,0.9345901298072217,0.3427545974405624,67.84287437122063
237,94.47,0.9121533451581622,0.3373943144353812,67.65588030592399
238,94.78,0.8912648701727909,0.3320915637347842,67.48054491861723
239,95.17,0.8648734309748637,0.3256249971175099,67.25986309524784
240,95.5,0.8424171797742872,0.32053193468587093,67.0732868680456
241,95.82,0.8207151840494371,0.31520468592038764,66.89195551481623
242,96.15,0.7984740416729564,0.30930330993467064,66.70474841239525
243,96.49,0.7757493643135834,0.3030757518092235,66.51240946460776
244,96.82,0.7534173303972295,0.29742356356660504,66.325310950366
245,97.19,0.7282670964628881,0.29115233398195617,66.1151616205211
246,97.53,0.7051736252809881,0.28554314968722133,65.92243793289383
247,97.87,0.6821430439173956,0.27990651870588545,65.72994702021143
248,98.2,0.659549007472011,0.2747757137880592,65.54266781062834
249,98.53,0.6367815279646917,0.2701031223055193,65.3554006207707
250,98.87,0.6131070434619094,0.26574067497340714,65.16217659168437
251,99.21,0.5894067049107015,0.2615394777558065,64.96907372344221
252,99.55,0.5656895358835903,0.25770175926885786,64.77640493897374
253,99.88,0.5426183288140238,0.2542032070285529,64.58945666420999
254,100.22,0.5189043022495078,0.2504151752563393,64.39686928168261
255,100.57,0.49447509701459363,0.24631911627200842,64.19826618526176
256,100.93,0.4695579970187439,0.24179961962932853,63.9945264732286
257,101.26,0.4468787112979069,0.23725132413132374,63.80787565631582
258,101.61,0.4229457734420047,0.23217158666658624,63.6100376222065
259,101.99,0.3968334679621327,0.22667317383772234,63.39467986146434
260,102.44,0.3920062290458542,0.25048810942053745,63.139650934269675
261,102.85,0.38760807803324493,0.27218616184043565,72.90729124504786
262,103.2,0.38392298053009355,0.2906402598414949,72.70941944537056
263,103.55,0.37974885470713576,0.3091251621957854,72.51098309802215
264,103.9,0.3758806341007548,0.3276258304946945,72.31268350319223
265,104.25,0.37275941295126497,0.34628239702069663,72.11389689061629
266,104.6,0.3692962280583518,0.36482843211333854,71.91559552600137
267,104.93,0.3667024737693743,0.3823516160479527,71.72879262537555
268,105.28,0.3644744026166119,0.4008865053154277,71.5312398662556
269,105.65,0.3616290158931826,0.4203851806619663,71.32277207227551
270,106.0,0.3596739792823986,0.4388676741308844,71.12566411940897
271,106.34,0.35711019712344616,0.4568302118127292,70.93384012718637
272,106.68,0.3542599557185416,0.47484752811305697,70.74151357381287
273,107.02,0.35214303138720016,0.49298129266851054,70.54880654022841
274,107.35,0.34987650459082154,0.510527380702107,70.36202022627985
275,107.7,0.34822199660185404,0.5291126297133736,70.16436146815563
276,108.15,0.34639616696674935,0.5531295705207374,69.90954125106444
277,108.69,0.3450701481896366,0.5819101874611905,69.60420078491008
278,109.08,0.34342070682744913,0.6026942940398872,69.38353322544933
279,109.41,0.34217570569228234,0.620318327887818,69.19661563298962
280,109.74,0.34092421583422666,0.6378800376707284,69.01009469593438
281,110.08,0.3395504338972762,0.6560485372933527,68.8174225125568
282,110.42,0.3374367287457867,0.6742487404217532,68.62429322853386
283,110.74,0.3356044084424462,0.6913924795898209,68.44249715744775
284,111.08,0.33338433204369594,0.7096457965514211,68.24898394337849
285,111.4,0.3315241820527277,0.7268029245224475,68.06709171180592
286,111.74,0.33015378530618644,0.745070478362639,67.87378750678053
287,112.07,0.32916848984288133,0.7059126361649775,67.68601555039164
288,112.41,0.32834637369378916,0.6876448882447146,67.49282842726966
289,112.74,0.32804758651077304,0.6698602906529587,67.30503239015593
290,113.08,0.32731575323080536,0.6516305307028687,67.11210209696797
291,113.42,0.32723548927532925,0.63343596528871,66.9194492824643
292,113.77,0.327175300039945,0.6147916843589576,66.72167719511248
293,114.12,0.32688078473382814,0.5961341245874477,66.5238121049955
294,114.46,0.3259374434189901,0.5780638895657535,66.33186703288689
295,114.79,0.32533905566033733,0.5605217893323046,66.14559527856973
296,115.13,0.3240521278740822,0.5425557343282257,65.95423975635356
297,115.46,0.32304080361314125,0.5251384107102358,65.76869765862602
298,115.83,0.32111367122772216,0.5056805889160852,65.56089341079945
299,116.19,0.31891408169241636,0.486681314106111,65.35815081922081
300,116.53,0.3175582922010808,0.4686555115701063,65.16639531687206
