,t,x,y,energy
0,37.12,1.1525974947960635,0.5577589585842577,49.71193240599766
1,37.39,1.14351188346777,0.5702968359918209,49.423864811995315
2,37.66,1.1344262721394762,0.5828347133993842,49.13579721799297
3,37.93,1.1253406608111827,0.5953725908069474,48.84772962399063
4,38.2,1.116255049482889,0.6079104682145107,48.55966202998829
5,38.46,1.1075059422778655,0.6199839797921641,48.28226360613419
6,38.73,1.098420330949572,0.6325218571997274,47.994196012131844
7,39.0,1.0893347196212781,0.6450597346072906,47.7061284181295
8,39.28,1.0799126041697142,0.6580619778447636,57.40739165397893
9,39.56,1.0867566175057009,0.6719417178834348,57.10865488982835
10,39.82,1.0931117727462598,0.6848300479193438,56.83125646597425
11,40.09,1.0997113570345327,0.6982140829566339,56.54318887197191
12,40.36,1.1063109413228056,0.7115981179939239,56.255121277969565
13,40.63,1.1129105256110785,0.7249821530312139,60.96705368396722
14,40.9,1.1195331488986733,0.7383503598911969,60.67904263726206
15,41.17,1.126522617127686,0.7171017537012202,60.39082232394361
16,41.44,1.1332831616499737,0.7038090990819132,60.103030544331205
17,41.71,1.139690660704045,0.6904867404469412,59.815650059500044
18,41.98,1.146548433771108,0.6772601176338602,59.528084909040246
19,42.25,1.1537194848063996,0.6640617123551297,59.24013128596827
20,42.51,1.1607739465762055,0.6513288353803235,58.962432524866216
21,42.78,1.168105947068411,0.6381820727919033,58.674489570856615
22,43.05,1.1756707463624079,0.6251227735213927,58.38662329897989
23,43.37,1.1843758698238323,0.6095578056162496,58.04542581327493
24,43.68,1.1930387236865232,0.5945342178738467,57.714782254998504
25,43.99,1.20176758976798,0.5794660489126164,57.38375089473649
26,44.26,1.2095830893973676,0.5664670249293152,57.09575027171498
27,44.54,1.2181365729184093,0.5531185474196343,56.79693989686113
28,44.81,1.2268234430796843,0.5404059536906776,56.50877694760659
29,45.09,1.2361132537033805,0.5273254487740573,56.20990001099294
30,45.35,1.2445468893491425,0.5151531176949914,55.93265382236653
31,45.62,1.2536541170810411,0.502713835512781,55.645090251005946
32,45.89,1.2625443855111407,0.4902474732564648,55.35787052003543
33,46.17,1.2717584617783124,0.47732001284300185,55.06002887559949
34,46.45,1.2812426852321122,0.46444398318747415,54.76185724621846
35,46.73,1.2904207914981096,0.4514723611226607,54.46384730793184
36,47.02,1.2997797798062747,0.4379249255249082,54.15488374555503
37,47.29,1.3083246922080136,0.42527887676830184,53.86740964960963
38,47.56,1.3164123009060462,0.4125199846542304,53.58025474666016
39,47.83,1.300497914773298,0.3998005606618618,53.29332341086975
40,48.12,1.2912319091823377,0.38627017585448326,52.984661449163426
41,48.41,1.2821530110312136,0.37275238007299694,52.6764784908181
42,48.69,1.273716549171057,0.3594995247474227,52.37846270437882
43,48.97,1.2657781311000218,0.34599973777438564,52.080008082642216
44,49.25,1.2573216826060671,0.3326637545568961,51.78147074811578
45,49.52,1.2492644645275737,0.3197689755261425,51.493591643853016
46,49.82,1.2398054043645095,0.30564939023810805,51.17386134993326
47,50.11,1.2303396206119126,0.29205037540550216,50.86436839257358
48,50.4,1.2390035991925883,0.27815397275607606,50.5548754352139
49,50.68,1.2473688198911714,0.264736756404906,50.25605464879766
50,50.98,1.2563315563539392,0.2503611674572238,49.93588952049454
51,51.27,1.2374942935967401,0.25633903609643893,49.62639656313486
52,51.57,1.21800747005481,0.2625230381370062,49.306231434831744
53,51.9,1.1965719641586865,0.2693254403816303,48.95404979369831
54,52.21,1.1764355798320252,0.27571557582354994,58.62321249445175
55,52.5,1.1897414360509655,0.2640645872880616,58.31371953709207
56,52.79,1.2030472922699056,0.25241359875257324,58.00422657973239
57,53.1,1.2172707937453244,0.2399590937663616,57.673389280485836
58,53.41,1.231494295220743,0.22750458878014995,57.34255198123928
59,53.75,1.24709426458088,0.21384480911785325,56.97969816916241
60,54.1,1.2631530565692561,0.19978327123019493,56.6061721861421
61,54.41,1.277376558044675,0.18732876624398326,56.27533488689555
62,54.71,1.2911412368918544,0.17527601948313326,55.95516975859243
63,55.0,1.3044470931107948,0.1636250309476449,65.64567680123275
64,55.3,1.3178516393140494,0.15134964465247927,65.32552929630235
65,55.59,1.2946076573835466,0.13928475591979916,65.01630962965204
66,55.88,1.282180426908679,0.12715238316912428,64.70708175023427
67,56.17,1.2701430724130942,0.11485379704064902,64.3981270948557
68,56.48,1.257052658896104,0.10180144922091042,64.06771209903336
69,56.77,1.2445386952935205,0.08981306680586268,63.758957302186424
70,57.08,1.2310440222703443,0.07710950289659087,63.4291195163374
71,57.61,1.1954656304443239,0.06942143645567374,62.86520330182133
72,58.14,1.1598872386183032,0.06173337001475661,62.30128708730526
73,58.45,1.1390772358521404,0.05723657643610697,61.97144930145624
74,58.73,1.1202811043214125,0.05317495642958471,61.67353130133454
75,59.0,1.1021562632024962,0.04925839428043823,61.38625322978862
76,59.28,1.0833601316717683,0.04519677427391596,61.088335229666924
77,59.57,1.0638927097292288,0.0409900964100179,60.77977730096945
78,59.85,1.0450965781985009,0.036928476403495634,60.48185930084775
79,60.13,1.026300446667773,0.032866856396973405,70.18394130072606
80,60.41,1.0077013396094192,0.028558322757072208,69.88647758946337
81,60.7,0.9883270793209363,0.024555712965090206,69.57870430744782
82,60.98,0.9741261890365467,0.034471812562016244,69.28154389722592
83,61.27,0.9590980483023303,0.04449113115990346,68.9737148821118
84,61.56,0.9392993692786706,0.04185835899608599,68.6658858669977
85,61.83,0.9208661163945738,0.0394071573263249,68.37928643913284
86,62.11,0.9017501504406956,0.03686517040953563,68.08207221764336
87,62.4,0.881951471417036,0.03423239824571817,67.77424320252925
88,62.68,0.8628355054631578,0.0316904113289289,67.47702898103977
89,62.96,0.8437195395092796,0.029148424412139624,67.17981475955028
90,63.24,0.8246035735554014,0.026606437495350348,66.8826005380608
91,63.54,0.8041221814619602,0.0238828800845047,66.56415672932206
92,63.84,0.7833218569327833,0.023991718731829863,66.24571292058333
93,64.17,0.7604414999506887,0.02411144124388754,65.89542473097072
94,64.47,0.7396411754215116,0.024220279891212698,65.57698092223198
95,64.76,0.7199674826179883,0.027335819082664654,65.26915190711787
96,65.04,0.7009721930145862,0.030343925888204476,64.97193768562839
97,65.33,0.6812985002110629,0.033459465079656435,64.66410867051428
98,65.63,0.6609464042074179,0.036682436657020534,64.34566486177555
99,65.92,0.6412727114038944,0.03979797584847249,64.03783584666144
100,66.2,0.6222774218004924,0.042806082654012326,63.74062162517195
101,66.5,0.6019253257968474,0.046029054231376425,63.42217781643321
102,66.79,0.590602250851682,0.05849120897102163,63.1143488013191
103,67.08,0.5792791759065169,0.07095336371066682,62.806519786204994
104,67.39,0.5671751992409954,0.08427497739787376,62.47746118384163
105,67.7,0.5546652514858723,0.0973773700989155,62.148436708245654
106,67.99,0.5427822667218144,0.10955267156745425,61.840556483991755
107,68.28,0.5306496091592205,0.12153051750752368,61.532972863071
108,68.58,0.5184078296145518,0.1341377607155204,61.21455776551405
109,68.87,0.507098195892633,0.146575379823608,60.90689483904494
110,69.16,0.4957713074300973,0.1589299057886434,60.599623893092584
111,69.46,0.48369908424811875,0.17149215230497106,60.28191950167061
112,69.75,0.4720882849168324,0.18366743682642386,59.97480525662936
113,70.05,0.460077113194812,0.19626255874516813,59.65710086520738
114,70.34,0.4484663138635256,0.2084378432666209,59.349986620166135
115,70.64,0.43645514214150527,0.22103296518536517,59.03228222874416
116,70.93,0.4248443428102189,0.23320824970681797,58.72516798370291
117,71.25,0.4120324263067305,0.24664304642014517,58.38628329951947
118,71.55,0.40002125458471016,0.25923816833888946,58.06857890809749
119,71.85,0.3880100828626898,0.27183329025763375,57.750874516675516
120,72.16,0.37559853874993543,0.2848482495736695,57.422579978872804
121,72.45,0.36398773941864904,0.2970235340951223,62.115465733831556
122,72.75,0.35191816645437424,0.3096782329311621,61.79728813182439
123,73.04,0.33264483140322193,0.3138335173914044,61.48971644988412
124,73.34,0.31270689859168505,0.31813208752268957,61.171538847876946
125,73.65,0.2921043680197636,0.3225739433250176,60.84275532580287
126,73.95,0.27216643520822675,0.32687251345630275,60.5245777237957
127,74.26,0.2515639046363053,0.3313143692586308,60.195794201721625
128,74.6,0.22896758078323015,0.3361860820740873,59.83519291944683
129,74.91,0.2083650502113087,0.3406279378764153,59.50640939737276
130,75.2,0.18909171516015635,0.34478322233665765,59.19883771543249
131,75.49,0.16981838010900402,0.34893850679689997,68.89126603349223
132,75.77,0.15134099577274632,0.35319201809590905,68.59446434643515
133,76.06,0.1321679553296794,0.35761685494206197,68.28686207179018
134,76.35,0.11429660510644633,0.3644508224349948,67.97925979714522
135,76.62,0.09765776179516038,0.37081348182496676,67.69287147247576
136,76.92,0.07917015811595376,0.37788310336938,67.37466222284303
137,77.2,0.06168587179571839,0.384093900291043,67.077773862515
138,77.49,0.04346749869439815,0.390423053253648,66.77008659233086
139,77.77,0.0258144562382049,0.39653317162369245,66.47273734539851
140,78.05,0.008169293592584219,0.4027040487030359,66.17525877156422
141,78.33,0.05094029162095914,0.40927333914177,65.87754290735079
142,78.62,0.06908300976197898,0.41605858386133604,65.5689179530458
143,78.9,0.08689969334733585,0.4222577282103064,65.27061657790854
144,79.19,0.10534922560640422,0.4288562871440396,64.96119167258341
145,79.49,0.12413123308889543,0.43610836315740775,64.64119228915207
146,79.78,0.14191966724741306,0.4434799124140965,64.33232777921593
147,80.07,0.15962482658292398,0.4509463849978754,64.02351663393222
148,80.39,0.1794759303212986,0.45885260961957897,63.68245636717817
149,80.81,0.2059932158076458,0.46866200819646214,63.23449303995546
150,81.23,0.23284920211394583,0.47785792903598284,62.7867449894753
151,81.53,0.252150655880754,0.4841586983145577,62.46710279111203
152,81.84,0.24509688600478213,0.49959124179460657,62.13680585280332
153,82.13,0.23849819805629227,0.5140281373082007,61.82781839438549
154,82.53,0.2293965595066511,0.533941096637296,61.40162879656779
155,82.96,0.21961229806578683,0.5553475279160736,70.94347497891377
156,83.32,0.22532835895838116,0.5738015560198679,70.55990434087785
157,83.65,0.2305680814432593,0.5907177484483461,70.20829792267826
158,83.97,0.23564902445889874,0.6071213289850522,69.8673462444241
159,84.28,0.23650426629356786,0.5908198097881641,69.53704930611538
160,84.58,0.23733191968195735,0.5750441460492401,69.21740710775211
161,84.92,0.23826992685546544,0.5571650604784596,78.85514594960706
162,85.24,0.2412062133247501,0.573860844197848,78.5141942713529
163,85.54,0.2439589818897045,0.5895131414347745,78.19455207298964
164,85.84,0.24671175045465887,0.6051654386717011,77.87490987462637
165,86.15,0.24955627797177843,0.6213394791498587,77.54461293631765
166,86.45,0.2523090465367328,0.6369917763867853,77.22497073795438
167,86.75,0.2550618151016872,0.6526440736237118,76.90532853959111
168,87.05,0.25781458366664156,0.6682963708606384,76.58568634122784
169,87.35,0.26056735223159594,0.683948668097565,76.26604414286457
170,87.65,0.26332012079655037,0.6996009653344916,85.9464019445013
171,87.95,0.24563348238126348,0.7081623449974808,85.62675974613803
172,88.25,0.2279468439659766,0.71672372466047,85.30711754777477
173,88.55,0.21026020555068975,0.7252851043234592,94.9874753494115
174,88.86,0.23181603247569546,0.7274721732466827,94.65717841110278
175,89.15,0.2519811608894105,0.7295181409490531,94.34819095268494
176,89.45,0.27284163855877086,0.73163465926185,94.02854875432168
177,89.75,0.2937021162281312,0.733751177574647,93.70890655595841
178,90.05,0.3145625938974916,0.7358676958874439,93.38926435759514
179,90.34,0.33445083971335854,0.736110950134979,93.0802768991773
180,90.65,0.3548163097840074,0.7383707820235818,49.66970306169129
181,90.96,0.3715224660247308,0.7199312681466343,49.339406123382574
182,91.28,0.38876753053128416,0.70914628767718,48.99845444512842
183,91.59,0.4054736867720076,0.698698337847396,48.6681575068197
184,91.9,0.4221798430127311,0.6882503880176121,48.33786056851099
185,92.2,0.43834709098762475,0.6781394688274986,48.01821837014772
186,92.53,0.45613106376000784,0.6670174577183737,47.66661195194812
187,92.85,0.4564518576936153,0.6501787802736294,47.32566027369396
188,93.17,0.4778864827045347,0.6551949713330406,46.984708595439805
189,93.49,0.4993211077154541,0.6602111623924518,46.64375691718565
190,93.82,0.5214255647579648,0.6653841094224696,46.29215049898605
191,94.14,0.5428601897688842,0.6704003004818808,50.95119882073189
192,94.47,0.5649416671024813,0.6651724393346463,50.59959240253229
193,94.78,0.585684873082527,0.6602614182569411,50.269295464223575
194,95.17,0.611781164476778,0.6540830369011182,54.85376060635132
195,95.5,0.6248246255359828,0.6684323103981388,59.50215418815172
196,95.82,0.6393297794699653,0.6555773801856091,59.161202509897564
197,96.15,0.6542882194643845,0.6423207334039379,58.80959609169796
198,96.49,0.6696999455192408,0.6286623700531251,58.44733493355292
199,96.82,0.6846583855136602,0.6154057232714539,58.09572851535332
200,97.19,0.7014299697498273,0.6005422102132164,57.70150313737195
201,97.53,0.7168416958046835,0.5868838468624037,57.33924197922691
202,97.87,0.7322534218595397,0.5732254835115909,61.976980821081874
203,98.2,0.7525191356647808,0.5816268259697199,61.62537440288227
204,98.53,0.7727848494700219,0.5900281684278491,61.27376798468267
205,98.87,0.7936646758148158,0.5986840970210732,60.91150682653763
206,99.21,0.8145445021596097,0.6073400256142971,60.549245668392594
207,99.55,0.8354243285044036,0.6159959542075211,65.18698451024754
208,99.88,0.8405804936997746,0.5990653256563455,64.83537809204795
209,100.22,0.8458929063253081,0.5816216477551344,64.4731169339029
210,100.57,0.8513615663810046,0.5636649205038875,64.10020103581242
211,100.93,0.8569864738668637,0.545195143902605,63.71663039777649
212,101.26,0.8621426390622345,0.5282645153514294,68.3650239795769
213,101.61,0.8377673336320837,0.5260164410486179,67.99210808148642
214,101.99,0.8113027163079198,0.5235756746627083,67.58722796355961
215,102.44,0.7799630378977259,0.5206852934162364,67.1077646660147
216,102.85,0.7514091086795492,0.5180518349472287,66.67092032825157
217,103.2,0.7270338032493984,0.5158037606444171,66.29800443016109
218,103.55,0.7026584978192475,0.5135556863416058,65.9250885320706
219,103.9,0.7007157661999377,0.49519422332263635,65.55217263398012
220,104.25,0.6987730345806278,0.47683276030366695,65.17925673588964
221,104.6,0.696830302961318,0.4584712972846976,68.13967417113248
222,104.93,0.7054892950081056,0.44236460225493845,67.78806775293289
223,105.28,0.7146730744516685,0.42528174389004236,67.4151518548424
224,105.65,0.7243816412920062,0.4072227221900094,72.02092647686104
225,106.0,0.7015209741140364,0.40049233351226354,71.64801057877055
226,106.34,0.7060853486956137,0.3829299370841239,71.2857494206255
227,106.68,0.6986813933247984,0.3999393810316737,70.92348826248046
228,107.02,0.6912774379539831,0.4169488249792234,70.56122710433542
229,107.35,0.684091245976427,0.43345799116360995,70.20962068613582
230,107.7,0.7014358880010753,0.4464981492813843,69.83670478804534
231,108.15,0.723736142032766,0.46326406686137983,69.35724149050043
232,108.69,0.7504964468707948,0.48338316795737457,73.78188553344654
233,109.08,0.7692112024054716,0.49828492262463814,73.3666895498257
234,109.41,0.7855094980173418,0.5106324969971363,73.01503134145415
235,109.74,0.7803443640793849,0.49369510499112657,72.6633731330826
236,110.08,0.775022710931187,0.4762444586819045,72.30105861536647
237,110.42,0.7703941271524829,0.45874605305030175,71.9391398321247
238,110.74,0.7660948021650248,0.4422558419230305,71.59843061021581
239,111.08,0.7617394681874363,0.42476060489953926,71.23677972593549
240,111.4,0.7573462656644989,0.40831726916133154,70.8962772918069
241,111.74,0.7520427966273008,0.3910266291033581,70.53498040719596
242,112.07,0.7466177417863554,0.37425665515357204,70.18407894917505
243,112.41,0.7405390347600702,0.3571334924174984,69.82292646101033
244,112.74,0.7341077874321248,0.3405919392457978,69.47219175841185
245,113.08,0.7269954631189688,0.3235694829628021,69.11027780260056
246,113.42,0.7191996762180001,0.3067431132879168,68.74852647020491
247,113.77,0.7115360141036836,0.28940693384555916,68.37660269210355
248,114.12,0.7041031557892237,0.27198658531382647,68.00450987659814
249,114.46,0.6971929870496252,0.2549014267043717,67.6424983598766
250,114.79,0.690168912004805,0.2384791819119348,67.29166081211525
251,115.13,0.6827151401788627,0.2215318711309245,66.92970292412232
252,115.46,0.6781271075496622,0.2045564526498595,66.57839085636448
253,115.83,0.6729829497532861,0.18552340768624118,66.1844955076663
254,116.19,0.6679778232487037,0.1670047693432612,70.8012459792032
255,116.53,0.6628314333194024,0.14955120565666152,70.4390978578541
256,116.87,0.6583122346656036,0.13205721847521432,70.07730784505824
257,117.21,0.6539376607796131,0.1146294808445584,69.71606454124957
258,117.55,0.6500138213292189,0.09718081265219816,69.35506943765341
259,117.9,0.6452761300733351,0.07933495457503525,68.98358086640283
260,118.24,0.6400630616657794,0.06212747889164055,68.62289955820715
261,118.58,0.6343682911026526,0.044944035881445014,68.26183281750299
262,118.93,0.6281219584857977,0.027342769304428173,67.89022980001984
263,119.28,0.6214714934765486,0.009881884320613713,67.5189769856227
264,119.64,0.6148182167446359,0.03928750137553409,67.1376096202598
265,119.98,0.6084611636650411,0.056262138548608356,66.7770214955686
266,120.32,0.6014357782436747,0.07303877874276901,66.41673354215334
267,120.67,0.5947861530559396,0.09035175040819737,66.04639178600561
268,121.01,0.5878366395420743,0.1070610186916591,65.68662411275679
269,121.37,0.5803498043435903,0.12467456379976241,65.30598796933377
270,121.73,0.5725256570296183,0.14230391686391672,64.92475404660095
271,122.07,0.5658572637099936,0.15905817990892607,64.56510485335147
272,122.42,0.5589668166286034,0.17624362604117394,64.19521961742265
273,122.76,0.5692703172190334,0.19187021067014245,63.83590253109179
274,123.11,0.5798768619444761,0.20795640072937474,63.46601729516296
275,123.47,0.5907864508049314,0.22450219621887077,63.08556390963617
276,123.83,0.6016960396653868,0.24104799170836683,62.70511052410938
277,124.19,0.6126056285258421,0.2575937871978629,62.32465713858259
278,124.55,0.6235152173862973,0.274139582687359,61.944203753055795
279,124.89,0.6338187179767274,0.2897661673163275,71.58488666672494
280,125.24,0.6554660104757979,0.2821205401502587,71.21500143079612
281,125.58,0.6764948089034662,0.27469335947464907,70.85568434446526
282,126.03,0.7043270421165567,0.2648632674039892,70.38011761255677
283,126.42,0.7284483109012352,0.25634385427608397,69.96795977823608
284,126.77,0.7500956034003056,0.24869822711001519,69.59807454230726
285,127.12,0.771742895899376,0.2410525999439464,69.22818930637844
286,127.47,0.7933901883984463,0.23340697277787759,68.85830407044962
287,127.81,0.8144189868261147,0.22597979210226793,78.49898698411876
288,128.16,0.8359488780381844,0.21810710764790206,78.12898194625718
289,128.5,0.8568909916658767,0.21063193112339848,77.7699094951399
290,128.84,0.8777284550942746,0.20311822979017338,77.41118379404793
291,129.19,0.8993759327515815,0.19551203326928443,77.0414050409014
292,129.53,0.9202903778679443,0.18792135691385273,76.68213249375664
293,129.88,0.9415594815364743,0.17961527757770016,76.31199687478437
294,130.21,0.9613344681392683,0.17139360978194182,75.96300818580777
295,130.56,0.9822805891096602,0.1626914756615381,75.59303876222441
296,130.9,1.002456478041987,0.1541042440888507,75.23394049183153
297,131.25,1.0233709653235843,0.14564665964157825,74.86485492999276
298,131.61,1.0449610979727122,0.137056541955109,74.48522288274815
299,131.97,1.0663202197160953,0.12800606560828498,74.10514824217307
300,132.33,1.087934735176877,0.11947378587768336,73.72558565488168
