,t,x,y,energy,sight
0,21.048,0.05949895763372855,0.6631643126466914,49.95126899906808,92.2240781286645
1,21.096,0.06043061349018516,0.6653948697308045,49.906286536669384,92.2240781286645
2,21.144,0.061362269346641775,0.6676254268149175,49.86130407427069,92.2240781286645
3,21.192,0.062293925203098385,0.6698559838990307,49.816321611872,92.2240781286645
4,21.24,0.063225581059555,0.6720865409831438,49.771339149473306,92.2240781286645
5,21.29,0.06419605591003064,0.6744100379457616,49.724482417808,92.2240781286645
6,21.338,0.06512771176648725,0.6766405950298747,49.679499955409305,92.2240781286645
7,21.39,0.06613700561098192,0.6790570318709973,49.63076895447738,92.2240781286645
8,21.44,0.06710748046145755,0.6813805288336151,49.583912222812074,92.2240781286645
9,21.49,0.06807795531193318,0.6837040257962329,49.537055491146766,92.2240781286645
10,21.54,0.06904843016240882,0.6860275227588507,49.49019875948146,92.2240781286645
11,21.594,0.07009654300092251,0.688536899478478,49.43959348928293,92.2240781286645
12,21.644,0.07106701785139814,0.6908603964410958,49.39273675761762,92.2240781286645
13,21.696,0.0720763116958928,0.6932768332822183,49.344005756685696,92.2240781286645
14,21.748,0.07308560554038747,0.6956932701233409,49.29527475575377,92.2240781286645
15,21.796,0.07401726139684409,0.697923827207454,49.25029229335508,92.2240781286645
16,21.846,0.07498773624731972,0.7002473241700718,49.20343556168977,92.2240781286645
17,21.894,0.07591939210377632,0.702477881254185,49.15845309929108,92.2240781286645
18,21.944,0.07688986695425196,0.7048013782168028,49.11159636762577,92.2240781286645
19,21.994,0.07786034180472759,0.7071248751794206,49.064739635960464,92.2240781286645
20,22.046,0.07886963564922225,0.7095413120205432,49.01600863502854,92.2240781286645
21,22.094,0.07980129150567887,0.7117718691046562,48.97102617262985,92.2240781286645
22,22.142,0.08073294736213547,0.7140024261887693,48.926043710231156,92.2240781286645
23,22.192,0.08170342221261111,0.7163259231513871,48.87918697856585,92.2240781286645
24,22.244,0.08271271605710577,0.7187423599925097,48.830455977633925,92.2240781286645
25,22.296,0.08372200990160043,0.7211587968336323,48.781724976702,92.2240781286645
26,22.344,0.08465366575805704,0.7233893539177454,48.73674251430331,92.2240781286645
27,22.394,0.08562414060853267,0.7257128508803632,48.689885782638,92.2240781286645
28,22.442,0.08655579646498927,0.7279434079644763,48.64490332023931,92.2240781286645
29,22.492,0.0875262713154649,0.7302669049270941,48.598046588574,92.2240781286645
30,22.542,0.08849674616594054,0.7325904018897119,53.55118985690869,92.2240781286645
31,22.592,0.08951614160138892,0.7348814154128165,53.50440004607164,92.2240781286645
32,22.64,0.0904722588620959,0.7370927919018426,53.459469326184866,92.2240781286645
33,22.688,0.09140009276519752,0.73931406863909,53.41455109684955,92.2240781286645
34,22.736,0.09232535120806272,0.7415377590071587,53.36962495226975,92.2240781286645
35,22.786,0.09325727072659676,0.7438702116475595,53.32280849322709,92.2240781286645
36,22.836,0.09414656742282171,0.7462330758717,53.275909223864026,92.2240781286645
37,22.884,0.09494386444376098,0.7485346690571679,53.23080854062753,92.2240781286645
38,22.936,0.09584115401299086,0.7510042969938804,53.18202099775275,92.2240781286645
39,22.992,0.09674299988719375,0.7537015966281958,53.12938860797401,92.2240781286645
40,23.046,0.09754891578620185,0.756322761959648,53.07863745458234,92.2240781286645
41,23.094,0.09829835447554103,0.758647567169337,53.03349300103875,92.2240781286645
42,23.142,0.09900753608273533,0.7609902377045696,52.98831626639885,92.2240781286645
43,23.194,0.09975489726993866,0.7635328954768229,52.93938385522175,92.2240781286645
44,23.242,0.1003877523860696,0.7658967453650221,52.894210718744034,92.2240781286645
45,23.292,0.10097845162202002,0.7683844022343743,52.847105669097125,92.2240781286645
46,23.34,0.10147447910858161,0.7707906218970667,52.80187035280016,92.2240781286645
47,23.396,0.10202665181973163,0.7735989520287656,52.74912259429971,92.2240781286645
48,23.45,0.10248067880318648,0.7763081550580373,52.698341228038394,92.2240781286645
49,23.498,0.10290151035913805,0.7787208935245613,52.653154871075685,92.2240781286645
50,23.554,0.103375429080191,0.7815420624887526,52.600416081115384,92.2240781286645
51,23.6,0.10376217071246692,0.7838551351311281,52.557124871794144,92.2240781286645
52,23.652,0.10420335590845217,0.7864655557079832,52.50821024033662,92.2240781286645
53,23.7,0.10454980812343725,0.7888739116298925,52.4631263905107,92.2240781286645
54,23.75,0.10492223161216893,0.7913928290979257,52.41608871015961,92.2240781286645
55,23.8,0.10531635764697825,0.7939047200501166,52.36907456387678,92.2240781286645
56,23.85,0.10575991753240584,0.7964003564415386,52.32211081863037,92.2240781286645
57,23.898,0.1061339927182724,0.7988086647483713,52.27700111594625,92.2240781286645
58,23.95,0.10646402689719751,0.8014397472468774,52.228059216422736,92.2240781286645
59,23.998,0.10682969040372137,0.8038633933063732,52.18286062963807,92.2240781286645
60,24.046,0.10722741721935647,0.8062925876478635,52.13759507826079,92.2240781286645
61,24.094,0.10765484850062304,0.8087179307255028,52.09232196948771,92.2240781286645
62,24.144,0.10810828965067128,0.8112325614837392,52.0452274181683,92.2240781286645
63,24.194,0.10848479418394238,0.8137583889666921,51.99814215769044,92.2240781286645
64,24.246,0.10887088648862886,0.816398473724355,51.94909487555234,92.2240781286645
65,24.296,0.10931636985674412,0.8189382273025853,51.9018509406711,92.2240781286645
66,24.344,0.10974958219571847,0.821370467557869,51.856527912177924,92.2240781286645
67,24.392,0.11013451870627593,0.8238161774243367,51.811170974433836,92.2240781286645
68,24.442,0.11059809903270301,0.8263505375117974,51.76394059194708,92.2240781286645
69,24.492,0.11098186179887692,0.8288859786919645,51.7167875860978,92.2240781286645
70,24.542,0.1112913086956964,0.8314234552255604,51.66968606338563,92.2240781286645
71,24.592,0.11164911968227313,0.8339572437900908,51.62256756395571,92.2240781286645
72,24.64,0.10972676594773553,0.8354867199216234,51.577333804502985,92.2240781286645
73,24.69,0.10772431414092554,0.837079924225303,51.530215305073064,92.2240781286645
74,24.738,0.10580196040638794,0.8386094003568354,51.484981545620336,92.2240781286645
75,24.788,0.10379950859957794,0.8402026046605151,51.437863046190415,92.2240781286645
76,24.836,0.10187715486504034,0.8417320807920475,51.39262928673769,92.2240781286645
77,24.884,0.09995480113050274,0.84326155692358,51.34739552728496,92.2240781286645
78,24.934,0.09795234932369276,0.8448547612272597,51.30027702785504,92.2240781286645
79,24.982,0.09602999558915518,0.8463842373587921,51.25504326840231,92.2240781286645
80,25.032,0.09402754378234518,0.8479774416624718,51.20792476897239,92.2240781286645
81,25.08,0.0921051900478076,0.8495069177940042,51.16269100951966,92.2240781286645
82,25.13,0.0901027382409976,0.8511001220976839,51.11557251008974,92.2240781286645
83,25.18,0.08810028643418762,0.8526933264013635,51.06845401065982,92.2240781286645
84,25.226,0.08625803077192243,0.854159074360749,51.02510499118429,92.2240781286645
85,25.276,0.08425557896511243,0.8557522786644286,50.97798649175437,92.2240781286645
86,25.324,0.08233322523057485,0.857281754795961,50.932752732301644,92.2240781286645
87,25.374,0.08033077342376485,0.8588749590996407,50.88563423287172,92.2240781286645
88,25.43,0.07808802740013768,0.8606593479197621,50.83286151351021,92.2240781286645
89,25.48,0.07608557559332768,0.8622525522234417,50.78574301408029,92.2240781286645
90,25.532,0.0740030257142453,0.8639094846992685,50.73673977467317,92.2240781286645
91,25.586,0.07184037776289051,0.8656301453472427,50.68585179528885,92.2240781286645
92,25.64,0.06967772981153574,0.8673508059952167,50.63496381590453,92.2240781286645
93,25.694,0.06751508186018096,0.8690714666431909,50.584075836520206,92.2240781286645
94,25.748,0.06535243390882618,0.870792127291165,50.533187857135886,92.2240781286645
95,25.798,0.06334998210201619,0.8723853315948447,50.486069357705965,92.2240781286645
96,25.846,0.0614276283674786,0.8739148077263771,50.44083559825324,92.2240781286645
97,25.894,0.059505274632941016,0.8754442838579095,50.39560183880051,92.2240781286645
98,25.944,0.05750282282613104,0.8770374881615892,50.34848333937059,92.2240781286645
99,25.994,0.05550037101932106,0.8786306924652688,50.30136483994067,92.2240781286645
100,26.042,0.05357801728478347,0.8801601685968012,50.25613108048794,92.2240781286645
101,26.092,0.0515755654779735,0.881753372900481,50.20901258105802,92.2240781286645
102,26.142,0.049573113671163516,0.8833465772041607,50.1618940816281,92.2240781286645
103,26.192,0.04757066186435353,0.8849397815078403,50.11477558219818,92.2240781286645
104,26.244,0.04548811198527116,0.8865967139836671,50.06577234279106,92.2240781286645
105,26.292,0.04356575825073359,0.8881261901151998,50.02053858333833,92.2240781286645
106,26.342,0.041563306443923614,0.8897193944188795,49.97342008390841,92.2240781286645
107,26.39,0.03964095270938604,0.891248870550412,49.92818632445568,92.2240781286645
108,26.44,0.03763850090257606,0.8928420748540917,49.88106782502576,92.2240781286645
109,26.49,0.035636049095766086,0.8944352791577714,49.83394932559584,92.2240781286645
110,26.538,0.033713695361228514,0.895964755289304,49.78871556614311,92.2240781286645
111,26.59,0.03163114548214614,0.8976216877651308,49.73971232673599,92.2240781286645
112,26.64,0.029628693675336167,0.8992148920688106,49.69259382730607,92.2240781286645
113,26.688,0.027706339940798592,0.9007443682003432,49.64736006785334,92.2240781286645
114,26.736,0.025783986206261017,0.9022738443318759,49.602126308400614,92.2240781286645
115,26.788,0.023701436327178638,0.9039307768077027,49.55312306899349,92.2240781286645
116,26.836,0.02177908259264106,0.9054602529392352,59.507889309540765,92.2240781286645
117,26.884,0.022732646834284727,0.9077242000134126,59.46265555008804,92.2240781286645
118,26.934,0.023725942919330213,0.9100824782156808,59.415537050658116,92.2240781286645
119,26.984,0.024719239004375698,0.9124407564179491,59.368418551228196,92.2240781286645
120,27.032,0.025672803246019366,0.9147047034921265,59.32318479177547,92.2240781286645
121,27.08,0.026626367487663033,0.9169686505663039,59.27795103232274,92.2240781286645
122,27.13,0.02761966357270852,0.9193269287685721,59.23083253289282,92.2240781286645
123,27.18,0.028612959657754004,0.9216852069708403,59.1837140334629,92.2240781286645
124,27.228,0.02956652389939767,0.9239491540450178,59.13848027401017,92.2240781286645
125,27.278,0.03055981998444316,0.9263074322472861,59.09136177458025,92.2240781286645
126,27.326,0.03151338422608683,0.9285713793214635,59.04612801512752,92.2240781286645
127,27.376,0.03250668031113231,0.9309296575237317,58.9990095156976,92.2240781286645
128,27.43,0.03357944008298143,0.9334765979821814,58.94812153631328,92.2240781286645
129,27.48,0.03457273616802692,0.9358348761844496,58.90100303688336,92.2240781286645
130,27.532,0.03560576409647422,0.9382874855148085,58.85199979747624,92.2240781286645
131,27.584,0.03663879202492153,0.9407400948451674,58.80299655806912,92.2240781286645
132,27.634,0.037632088109967,0.9430983730474356,58.7558780586392,92.2240781286645
133,27.684,0.038625384195012484,0.9454566512497038,58.70875955920928,92.2240781286645
134,27.734,0.039618680280057966,0.9478149294519721,58.661641059779356,92.2240781286645
135,27.784,0.04061197636510345,0.9501732076542403,58.614522560349435,92.2240781286645
136,27.832,0.04156554060674711,0.9524371547284177,58.56928880089671,92.2240781286645
137,27.882,0.04255883669179259,0.954795432930686,58.52217030146679,92.2240781286645
138,27.934,0.04359186462023989,0.957248042261045,58.473167062059666,92.2240781286645
139,27.99,0.04470435623549083,0.9598893138475855,58.42039434269815,92.2240781286645
140,28.042,0.04573738416393813,0.9623419231779444,58.37139110329103,92.2240781286645
141,28.094,0.04677041209238543,0.9647945325083033,58.32238786388391,92.2240781286645
142,28.146,0.047803440020832734,0.9672471418386623,58.27338462447679,92.2240781286645
143,28.196,0.048796736105878216,0.9696054200409305,68.22626612504686,92.2240781286645
144,28.25,0.049914163447310075,0.972120291245362,68.1754529859489,92.2240781286645
145,28.304,0.05105002721414394,0.9746121646237196,68.12472564067383,92.2240781286645
146,28.358,0.052248882327388245,0.9770636904977325,68.07405961680747,92.2240781286645
147,28.418,0.05354455571455132,0.9798037703846252,68.0177717478131,92.2240781286645
148,28.474,0.054788807498675075,0.9823368151708987,67.96527972453582,92.2240781286645
149,28.53,0.05596330157912174,0.9848924370494128,67.91284885217652,92.2240781286645
150,28.582,0.057014693334812724,0.9814730155808199,67.86419912557159,92.2240781286645
151,28.636,0.05814293032602598,0.9790262396665197,67.81375448779889,92.2240781286645
152,28.688,0.05920573172000859,0.9766639664290511,67.76520527292548,92.2240781286645
153,28.742,0.06025140767176611,0.9741954965512113,67.71484737367582,92.2240781286645
154,28.794,0.06119124584733919,0.9717773354887245,67.66627233885774,92.2240781286645
155,28.844,0.062034499277046996,0.9694265461678008,67.61954726068925,92.2240781286645
156,28.896,0.06285696806155361,0.9669717348761481,67.57100710132305,92.2240781286645
157,28.948,0.06361770080384607,0.964502982847087,67.52250295271179,92.2240781286645
158,29.0,0.0643139650879628,0.962008127044867,67.47395471654727,92.2240781286645
159,29.052,0.06496383190209468,0.959499914669513,67.42540108642258,92.2240781286645
160,29.104,0.06559610573924052,0.9569818391346985,67.37681412130563,92.2240781286645
161,29.156,0.06627392527483619,0.9544705804790965,67.32819589759862,92.2240781286645
162,29.206,0.0669803438563591,0.9520786753567034,67.28149267990615,92.2240781286645
163,29.258,0.06771225650599119,0.9495778890317037,67.23284524033772,92.2240781286645
164,29.308,0.06847866482551265,0.9471834532447865,67.18601363378292,92.2240781286645
165,29.36,0.06926571741279532,0.9446861131362759,67.137284687918,92.2240781286645
166,29.412,0.07178034995928204,0.9439561935866859,67.08855574205307,92.2240781286645
167,29.468,0.07448841577857544,0.9431701263794352,67.036078415737,92.2240781286645
168,29.524,0.07719648159786885,0.9423840591721845,66.98360108942092,92.2240781286645
169,29.584,0.08009798068996891,0.941541844307273,66.9273753826537,92.2240781286645
170,29.64,0.08280604650926232,0.9407557771000222,66.87489805633761,92.2240781286645
171,29.69,0.08522396241934571,0.9400539313792627,66.82804330069825,92.2240781286645
172,29.746,0.08793202823863912,0.939267864172012,66.77556597438218,92.2240781286645
173,29.796,0.09034994414872251,0.9385660184512525,66.72871121874282,92.2240781286645
174,29.85,0.09296129333161257,0.9378080250728322,66.67810808265232,92.2240781286645
175,29.902,0.0954759258780993,0.9370781055232422,66.62937913678739,92.2240781286645
176,29.954,0.09799055842458602,0.9363481859736522,66.58065019092247,92.2240781286645
177,30.008,0.10060190760747609,0.9355901925952319,66.53004705483197,92.2240781286645
178,30.062,0.10321325679036615,0.9348321992168115,66.47944391874147,92.2240781286645
179,30.116,0.1058246059732562,0.9340742058383912,66.42884078265097,92.2240781286645
180,30.168,0.10833923851974295,0.9333442862888012,66.38011183678604,92.2240781286645
181,30.22,0.11085387106622968,0.9326143667392112,66.33138289092112,92.2240781286645
182,30.276,0.11356193688552307,0.9318282995319604,66.27890556460504,92.2240781286645
183,30.326,0.11597985279560648,0.931126453811201,66.23205080896568,92.2240781286645
184,30.376,0.11839776870568988,0.9304246080904415,66.18519605332632,92.2240781286645
185,30.428,0.12091240125217659,0.9296946885408515,66.1364671074614,92.2240781286645
186,30.482,0.12352375043506665,0.9289366951624312,66.0858639713709,92.2240781286645
187,30.534,0.1260383829815534,0.9282067756128412,66.03713502550598,92.2240781286645
188,30.588,0.12864973216444345,0.9274487822344207,65.98653188941547,92.2240781286645
189,30.64,0.13116436471093018,0.9267188626848307,65.93780294355055,92.2240781286645
190,30.69,0.13358228062101357,0.9260170169640712,65.89094818791119,92.2240781286645
191,30.744,0.13619362980390365,0.9252590235856509,65.84034505182069,92.2240781286645
192,30.794,0.13861154571398707,0.9245571778648914,65.79349029618133,92.2240781286645
193,30.846,0.1411261782604738,0.9238272583153014,65.74476135031641,92.2240781286645
194,30.898,0.14364081080696053,0.9230973387657114,65.69603240445149,92.2240781286645
195,30.95,0.14615544335344727,0.9223674192161214,65.64730345858656,92.2240781286645
196,31.002,0.14867007589993403,0.9216374996665314,65.59857451272164,92.2240781286645
197,31.052,0.15108799181001742,0.9209356539457719,65.55171975708228,92.2240781286645
198,31.108,0.1537960576293108,0.9201495867385212,65.4992424307662,92.2240781286645
199,31.162,0.1564074068122009,0.9193915933601009,65.4486392946757,92.2240781286645
200,31.216,0.15901875599509097,0.9186335999816805,65.3980361585852,92.2240781286645
201,31.268,0.1615333885415777,0.9179036804320905,65.34930721272028,92.2240781286645
202,31.318,0.16395130445166112,0.917201834711331,65.30245245708092,92.2240781286645
203,31.37,0.16646593699814785,0.916471915161741,65.253723511216,92.2240781286645
204,31.422,0.16898056954463458,0.915741995612151,65.20499456535107,92.2240781286645
205,31.476,0.17159191872752466,0.9149840022337307,65.15439142926057,92.2240781286645
206,31.53,0.17420326791041474,0.9142260088553102,65.10378829317007,92.2240781286645
207,31.584,0.17681461709330482,0.9134680154768899,65.05318515707957,92.2240781286645
208,31.638,0.1794259662761949,0.9127100220984696,65.00258202098907,92.2240781286645
209,31.688,0.18184388218627828,0.9120081763777101,64.95572726534971,92.2240781286645
210,31.744,0.1845519480055717,0.9112221091704594,74.90324993903363,92.2240781286645
211,31.796,0.1871700908471024,0.9111835416444107,74.8545209931687,92.2240781286645
212,31.848,0.18978823368863307,0.9111449741183619,74.80579204730378,92.2240781286645
213,31.9,0.19240637653016374,0.9111064065923132,74.75706310143886,92.2240781286645
214,31.952,0.19502451937169443,0.9110678390662645,74.70833415557394,92.2240781286645
215,32.004,0.1976426622132251,0.9110292715402158,74.65960520970901,92.2240781286645
216,32.054,0.20016010725315847,0.9109921873805537,74.61275045406965,92.2240781286645
217,32.104,0.20267755229309184,0.9109551032208915,74.5658956984303,92.2240781286645
218,32.156,0.20529569513462254,0.9109165356948428,74.51716675256537,92.2240781286645
219,32.21,0.2080145357777506,0.9108764848024075,74.46656361647487,92.2240781286645
220,32.264,0.2107333764208786,0.9108364339099723,74.41596048038437,92.2240781286645
221,32.318,0.21345221706400666,0.910796383017537,74.36535734429387,92.2240781286645
222,32.376,0.21637245331032934,0.9107533653923289,84.31100582775221,92.2240781286645
223,32.43,0.21864886491519037,0.9122405266888813,84.26040269166171,92.2240781286645
224,32.484,0.2209252765200514,0.9137276879854339,84.20979955557121,92.2240781286645
225,32.54,0.22328599966583323,0.9152699293300068,84.15732222925513,92.2240781286645
226,32.594,0.22556241127069426,0.9167570906265594,84.10671909316463,92.2240781286645
227,32.654,0.22809175749831762,0.9184094920671733,84.0504933863974,92.2240781286645
228,32.71,0.23045248064409946,0.9199517334117463,83.99801606008133,92.2240781286645
229,32.764,0.23272889224896048,0.9214388947082988,83.94741292399083,92.2240781286645
230,32.818,0.23500530385382157,0.9229260560048512,83.89680978790032,92.2240781286645
231,32.876,0.23745033854052416,0.9245233773974446,83.84245827135867,92.2240781286645
232,32.932,0.239811061686306,0.9260656187420174,83.78998094504259,92.2240781286645
233,32.988,0.24217178483208784,0.9276078600865905,83.7375036187265,92.2240781286645
234,33.042,0.24444819643694887,0.9290950213831429,83.686900482636,92.2240781286645
235,33.1,0.2468932311236515,0.9306923427757363,83.63254896609435,92.2240781286645
236,33.154,0.24916964272851255,0.9321795040722888,83.58194583000385,92.2240781286645
