,t,x,y,energy
0,0.0,0.9567127381140261,0.6968101065702539,99.99983313999847
1,3.57,1.2061738837937386,0.7051259427079858,96.4212374615278
2,3.76,1.2193747226484573,0.7058265214392191,96.23104833068419
3,3.94,1.2230444317788012,0.696835343271825,96.05086915409551
4,4.14,1.2271218863680717,0.6868451453080536,95.85067006899698
5,4.31,1.230587722768952,0.678353477038848,95.68050084666322
6,4.5,1.2344613046287591,0.6688627889732652,95.49031171581962
7,4.7,1.23853875921803,0.6588725910094939,95.29011263072108
8,4.89,1.2424123410778372,0.6493819029439112,95.09992349987748
9,5.08,1.2462859229376444,0.6398912148783285,94.90973436903387
10,5.28,1.2503633775269152,0.6299010169145571,94.70953528393534
11,5.49,1.2546447048456495,0.6194113090525972,94.49932624458188
12,5.68,1.2585182867054567,0.6099206209870145,94.30913711373827
13,5.88,1.2625957412947275,0.5999304230232432,94.10893802863974
14,6.09,1.2668770686134618,0.5894407151612834,49.789790960646535
15,6.31,1.27120547980065,0.5784637626208535,49.569863998221216
16,6.53,1.2755721496983328,0.5675490867633554,49.35026658936572
17,6.77,1.2807814412294123,0.5556850408188243,49.11032549356201
18,7.0,1.2857197066372164,0.5443377601370225,48.88059906066031
19,7.22,1.2908225032970988,0.5335778288744443,48.660842601788374
20,7.44,1.277693013261488,0.5277936199893702,48.44108614291644
21,7.66,1.2645635232258776,0.5220094111042963,48.221329684044505
22,7.88,1.2514340331902671,0.5162252022192223,48.00157322517257
23,8.13,1.2365141581498007,0.5096522375770927,47.751849976454466
24,8.39,1.2209974881077155,0.5028163543492778,47.492137797787635
25,8.63,1.2066744080688674,0.4965063082928335,47.25240347901825
26,8.87,1.1923513280300193,0.4901962622363891,47.01266916024886
27,9.1,1.1786250429927903,0.4841491347656299,46.7829237714282
28,9.34,1.1643019629539422,0.4778390887091855,46.543189452658815
29,9.57,1.1716372643089115,0.46724273820253337,46.313444063838155
30,9.81,1.1792914918097488,0.4561856768042877,46.07370974506877
31,10.04,1.1866267931647179,0.4455893262976356,45.84396435624811
32,10.29,1.1945999468114235,0.4340715540077963,45.59424110753
33,10.54,1.202573100458129,0.42255378171795704,45.3445178588119
34,10.79,1.2105462541048346,0.41103600942811774,45.09479461009379
35,11.04,1.2185194077515402,0.3995182371382785,44.84507136137569
36,11.3,1.2268114875441143,0.3875397539568457,44.58535918270886
37,11.55,1.2347846411908199,0.37602198166700646,44.33563593399075
38,11.83,1.2437145732751302,0.3631220767023865,49.05594589542647
39,12.1,1.2526211522052264,0.3507528968614996,48.78597679718495
40,12.38,1.2621620402484437,0.33799333161629447,48.50568400102596
41,12.64,1.2453289596596009,0.3329790275717116,48.245412118878335
42,12.89,1.2291433052472518,0.3281575813749973,47.995150693736385
43,13.14,1.2129576508349027,0.32333613517828297,47.744889268594434
44,13.4,1.19612457024606,0.3183218311337001,47.48461738644681
45,13.66,1.179291489657217,0.31330752708911724,47.22434550429918
46,13.94,1.1611635567153862,0.30790750734879724,51.94405270814019
47,14.19,1.1449597687075013,0.3029657511435792,51.693423383373485
48,14.44,1.128763640701934,0.29813865830193337,51.44310189424313
49,14.68,1.1133768925642336,0.2932347642232539,51.2028536554089
50,14.92,1.09808871004932,0.2880557604141353,50.96233199607162
51,15.16,1.082984125113859,0.2826793658488321,50.72207917522546
52,15.4,1.067742695996609,0.277586152074326,50.481987009457534
53,15.64,1.061014089142974,0.2890379432195833,50.24189484368961
54,15.89,1.0540051236704377,0.3009668923292263,49.99179883768135
55,16.13,1.0472765168168028,0.3124186834744836,49.751706671913425
56,16.37,1.0405479099631678,0.32387047461974083,49.5116145061455
57,16.61,1.033819303109533,0.33532226576499813,49.27152234037757
58,16.83,1.0276514134937011,0.34581974098148394,49.051437855090306
59,17.07,1.0209228066400662,0.35727153212674123,48.81134568932238
60,17.32,1.01391384116753,0.3692004812363842,48.561249683314124
61,17.57,1.0069048756949937,0.3811294303460272,48.31115367730587
62,17.83,0.999615551603556,0.3935355374200559,53.05105383105728
63,18.08,0.992204167817408,0.4052623918142326,52.80133092997991
64,18.33,0.9846170982322493,0.4168539518728143,52.5520215008041
65,18.58,0.9774237095865025,0.42858536827636773,52.302714847222184
66,18.83,0.9703800491684176,0.4403087661985953,52.05375267694657
67,19.1,0.9886518310451068,0.438058475409936,51.78487353304891
68,19.37,1.0068816785342194,0.4358429847881136,51.51622890595794
69,19.63,1.0244196154822116,0.43353347399261866,51.25742569719825
70,19.89,1.0420375428095126,0.43150201573815244,50.998532725798924
71,20.15,1.0595992532418335,0.4295427939463504,50.73997569832928
72,20.4,1.0765078769063596,0.4279288267864171,50.491492969037026
73,20.65,1.0817433822288003,0.4157630510607415,50.24301023974477
74,20.9,1.0869788875512407,0.40359727533506595,49.994527510452514
75,21.16,1.0924238130865789,0.3909448685803633,49.73610547198857
76,21.41,1.0976593184090193,0.37877909285468775,49.48762274269632
77,21.67,1.1031042439443575,0.3661266860999851,49.229200704232376
78,21.93,1.1085491694796954,0.3534742793452825,48.970778665768435
79,22.18,1.113784674802136,0.34130850361960696,52.055629269809515
80,22.45,1.119418816209969,0.3282273691409465,51.7876503747023
81,22.74,1.1249759000930402,0.3141327840403537,51.50025054032275
82,23.03,1.1308206371887473,0.3001377336689369,51.213057989535706
83,23.31,1.1364695961085418,0.2865531499436979,50.935319816592006
84,23.62,1.1225686515846367,0.2747416858146622,50.62782398226148
85,24.04,1.1037351138425717,0.25873905699467825,50.21121672284593
86,24.47,1.0844531585352193,0.24235541320278994,49.784690242968104
87,24.8,1.0696553788807397,0.22978191912994544,49.45735596771303
88,25.08,1.0570996870526963,0.21911349991662288,49.17961779476933
89,25.35,1.0449924127899402,0.20882609567520466,48.9117988422879
90,25.62,1.032885138527184,0.1985386914337864,48.643979889806474
91,25.9,1.045591696807483,0.20910615820014816,48.366241716862774
92,26.18,1.0579315169695773,0.21982431328079036,48.08894522512882
93,26.46,1.0706090979775182,0.23031839639373572,47.81164873339486
94,26.76,1.0841922204860266,0.24156205687189147,47.51454534939419
95,27.05,1.0973225722442512,0.25243092866744204,47.227345411526876
96,27.33,1.1100001532521921,0.2629250117803874,46.95004891979292
97,27.61,1.1226777342601333,0.2734190948933328,46.67275242805896
98,27.88,1.1349025445177905,0.28353838932367303,46.405359382458364
99,28.17,1.1480328962760151,0.2944072611192236,46.11815944459105
100,28.44,1.1646002232796693,0.28874417410553277,45.85076639899045
101,28.7,1.180553945579484,0.28329083105531194,45.5932767995232
102,28.98,1.197734877286977,0.2774180000781511,45.315980307789246
103,29.25,1.214302204290631,0.2717549130644602,46.71525392885531
104,29.53,1.1973464710323118,0.2655247946111659,46.437957437121355
105,29.8,1.1809962996760757,0.25951718038834637,46.170564391520756
106,30.07,1.1646461283198397,0.2535095661655268,45.90317134592016
107,30.34,1.1482959569636035,0.2475019519427073,45.63577830031956
108,30.61,1.1319457856073674,0.2414943377198878,45.36838525471896
109,30.9,1.1143844904469655,0.23504171503611868,45.081185316851645
110,31.17,1.0980343190907293,0.22903410081329917,46.24236369982248
111,31.46,1.1143923669445899,0.23707113095150753,45.95516376195516
112,31.73,1.1321073546132494,0.23391846644448586,45.687770716354564
113,32.02,1.1511345635906984,0.23053227123324035,45.40057077848725
114,32.3,1.1695056619137527,0.22726284137410677,46.551845715324724
115,32.58,1.1821386373443046,0.2377871388980461,46.27454922359077
116,32.87,1.1952227904688044,0.24868730419069754,45.987349285723454
117,33.16,1.2083069435933043,0.259587469483349,45.70014934785614
118,33.44,1.2209399190238561,0.2701117670072883,45.422852856122184
119,33.74,1.2344752498423044,0.2813878000686519,45.12574947212151
120,34.01,1.2466570475789078,0.29153622982387906,44.85835642652091
121,34.28,1.2588388453155115,0.3016846595791063,44.590963380920314
122,34.54,1.2631660370662952,0.3144272878591117,44.333473781453065
123,34.8,1.2674932288170788,0.32716991613911717,44.07598418198582
124,35.05,1.2716539901159094,0.33942244333143,43.828398028651925
125,35.32,1.2761476123186464,0.35265517269912794,43.561004983051326
126,35.57,1.280308373617477,0.36490769989144084,43.313418829717435
127,35.83,1.2846355653682608,0.3776503281714463,43.055929230250186
128,36.08,1.2887963266670914,0.3899028553637592,42.808343076916294
129,36.34,1.2931235184178753,0.40264548364376457,43.979424906020476
130,36.59,1.28423485375673,0.41338886223746674,43.731838752686585
131,36.85,1.2748001728211957,0.4244902270527807,43.47425112007074
132,37.12,1.2647917927865926,0.43585771694429054,43.20706908505981
133,37.39,1.255031992329671,0.44734644933088685,42.93988539639465
134,37.66,1.2457589057600145,0.4590096414727534,42.67297737843337
135,37.93,1.2369203345390518,0.4708951199933944,42.405879211609054
136,38.2,1.2277755482009804,0.48267708061184206,42.13862891285694
137,38.46,1.218650097753417,0.49381800222356553,41.881614099420815
138,38.73,1.2094115703008108,0.5055469351813356,41.614428935197665
139,39.0,1.2005628915277913,0.517457940713915,41.347164446911435
140,39.28,1.191535177639591,0.5298640339306016,41.07004363794715
141,39.56,1.1826342652441562,0.542268815665704,40.79322021632104
142,39.82,1.174399762793098,0.5538013391218128,40.53616163584321
143,40.09,1.1655000498182089,0.5656309820582057,40.269231539768946
144,40.36,1.1564288278236599,0.5773326985881158,40.00260271194321
145,40.63,1.1476455687274412,0.5891418186198258,39.73606066843883
146,40.9,1.1392633531278689,0.6011401493694497,39.46936911742028
147,41.17,1.1304437019320093,0.6130142353359143,39.20237885360721
148,41.44,1.1216957936246652,0.624888514543604,38.93555457379536
149,41.71,1.1130268212417112,0.6368095111845736,38.668650528294684
150,41.98,1.1045611259996868,0.6488570122991508,38.401494010797386
151,42.25,1.095799206661691,0.6608478688362609,38.13398364463998
152,42.51,1.0785289364021504,0.6584816062808678,37.87638106982174
153,42.78,1.0605944249787813,0.6560243336271904,37.60887070366434
154,43.05,1.042659913555412,0.6535670609735129,37.341360337506934
155,43.37,1.0214041963129004,0.6506547378284135,37.02431101465371
156,43.68,1.0008127202342174,0.6478334247815987,36.71716948313966
157,43.99,0.9858112053036123,0.6587822484881161,36.4100279516256
158,44.26,0.9727453697188918,0.6683183207486313,36.1425175854682
159,44.54,0.9591956142977002,0.678207580870647,35.86509942797163
160,44.81,0.9461297787129797,0.6877436531311623,35.597589061814226
161,45.09,0.932580023291788,0.6976329132531781,35.320170904317656
162,45.35,0.9199981075435386,0.7068157976521927,35.06256832949941
163,45.62,0.9069322719588181,0.7163518699127079,34.79505796334201
164,45.89,0.8938664363740976,0.7258879421732232,34.52754759718461
165,46.17,0.880316680952906,0.735777202295239,44.25012943968804
166,46.45,0.8670480917242477,0.7228066678849762,43.97241585209957
167,46.73,0.8533030587946361,0.7129096479123558,43.6942892129294
168,47.02,0.8386601959713366,0.7028829417258458,43.40578239386087
169,47.29,0.8246993617498017,0.693868997218107,43.13735921993739
170,47.56,0.8104511683073934,0.6851619985403558,42.86914002582903
171,47.83,0.7963517024752241,0.6763176802575299,42.60091187235438
172,48.12,0.7810916085351992,0.6668192526027188,42.31239055658435
173,48.41,0.766061944147162,0.657208102466057,42.02425125394367
174,48.69,0.7518125199102229,0.6476643801137254,41.74588438704275
175,48.97,0.7372731623885384,0.6382597445887784,41.467058679214354
176,49.25,0.722760309153404,0.6288426053298765,41.18827693501889
177,49.52,0.7091154665347638,0.6195655833346022,40.91987572938874
178,49.82,0.6938379613214695,0.6093257206968058,40.62152717595201
179,50.11,0.6787523762325046,0.5997412371336871,40.33329386360873
180,50.4,0.6632886276620485,0.5904990804054465,40.04504900695249
181,50.68,0.6485128418314614,0.5814612606043907,39.76686248559637
182,50.98,0.632907825353127,0.5714870046061483,39.468447249350305
183,51.27,0.6176866147889466,0.561970188980965,39.17999416855017
184,51.57,0.5983002657466466,0.5669686584617007,38.881594429791406
185,51.9,0.5769752818001167,0.5724669748905101,38.553354717156765
186,52.21,0.5569427211230734,0.5776320600206037,38.245008320439375
187,52.5,0.5382025837155168,0.5824639138519817,37.956555239639236
188,52.79,0.5194624463079601,0.5872957676833597,37.6681021588391
189,53.1,0.49942988563091684,0.5924608528134534,37.35975576212171
190,53.41,0.4793973249538735,0.5976259379435469,37.05140936540432
191,53.75,0.45742612937260024,0.6032908700217142,36.713222994811055
192,54.1,0.43480872215658356,0.6091224177492393,56.36508996625916
193,54.41,0.417303037995877,0.6001762584667493,56.05674356954177
194,54.71,0.4003620533242255,0.5915186849675653,55.75834383078301
195,55.0,0.38398576814162905,0.5831496972516876,55.46989074998287
196,55.3,0.36704478346997754,0.5744921237525038,55.17149101122411
197,55.59,0.35066849828738106,0.5661231360366259,54.883037930423974
198,55.88,0.33429221310478463,0.5577541483207481,64.59458484962383
199,56.17,0.33339317821348863,0.5429069908486303,64.30613176882369
200,56.48,0.3324321409158964,0.5270358914818836,63.9977853721063
201,56.77,0.33153310602460034,0.5121887340097657,63.70933229130616
202,57.08,0.3305720687270081,0.49631763464301903,73.40098589458879
203,57.61,0.297164691181381,0.48582870015002416,72.87381302278163
204,58.14,0.26375731363575394,0.4753397656570293,72.34664015097448
205,58.45,0.24421714941095318,0.4692047285007492,72.0382937542571
206,58.73,0.22656796882081054,0.46366340461765754,81.75978733141558
207,59.0,0.2416555789383446,0.4556990997934441,81.4912275665327
208,59.28,0.2573019894306022,0.4474398207164819,81.21272114369118
209,59.57,0.27350720029758324,0.4388855673867712,80.92426806289104
210,59.85,0.2891536107898408,0.4306262883098091,80.64576164004953
211,60.13,0.3048000212820984,0.422367009232847,80.36725521720801
212,60.41,0.320446431774356,0.4141077301558849,80.0887487943665
213,60.7,0.336651642641337,0.4055534768261741,89.80029571356636
214,60.98,0.3551082694986158,0.40177096087256486,89.52178929072484
215,61.27,0.37422406160079735,0.39785335506346964,99.2333362099247
216,61.56,0.3934160328408984,0.3938664228742631,98.94441287352271
217,61.83,0.41105412225927107,0.3897908144010703,98.67582300848356
218,62.11,0.42944734335877083,0.3858484397012412,98.39733429013354
219,62.4,0.44845527450133166,0.3818436898677008,98.109231221796
220,62.68,0.46678591939809133,0.37793454538560184,97.83108966484383
221,62.96,0.4853183047948649,0.3744055465337741,97.55264510833902
222,63.24,0.49887191940070147,0.36429057964418976,97.27420055183421
223,63.54,0.5133936493355263,0.35345311511963506,96.9758670984362
224,63.84,0.5279153792703514,0.3426156505950804,96.67753364503818
225,64.17,0.5438892821986588,0.3306944396180703,96.34936684630037
226,64.47,0.5584110121334838,0.3198569750935156,96.05103339290235
227,64.76,0.5724486844038146,0.3093807593864461,95.76264438795094
228,65.04,0.5860022990096512,0.29926579249686175,95.48419983144613
229,65.33,0.600039971279982,0.2887895767897923,49.71161099504859
230,65.63,0.6172198909753409,0.2804200293364321,49.41327754165057
231,65.92,0.6338271466808546,0.27232946679818393,49.12488853669916
232,66.2,0.649861738396523,0.2645178891750478,48.84644398019435
233,66.5,0.667041658091882,0.2561483417216876,53.548110526796336
234,66.79,0.6846558812432603,0.2493605954161163,53.259721521844924
235,67.08,0.7022701043946386,0.242572849110545,52.97133251689351
236,67.39,0.7210991015564567,0.23531698237010673,52.6630546150489
237,67.7,0.739928098718275,0.22806111562966844,52.35477671320429
238,67.99,0.7575423218696534,0.2212733693240972,57.066387708252876
239,68.28,0.7749399278496664,0.21422325210443488,56.77813570907813
240,68.58,0.7928796302891151,0.20687574484648033,56.480022042829596
241,68.87,0.8101002483285898,0.19960085119053153,56.19181893042805
242,69.16,0.8270868435268216,0.1919861299205629,55.9034956651224
243,69.46,0.8445641022235736,0.18393861541901393,55.605056115627505
244,69.75,0.8616921781633082,0.17636277293161362,55.31627593460852
245,70.05,0.8793075459662016,0.16843950125405566,55.0176821431194
246,70.34,0.8963578824089041,0.16079690855554402,54.729004739629765
247,70.64,0.9138311485632057,0.1526683440211028,54.43030908943159
248,70.93,0.9305638627747465,0.14464542950341408,54.14164840542311
249,71.25,0.9490992526392356,0.13585576667719604,53.82305286254811
250,71.55,0.9660943456434954,0.12731428766677194,53.52485393308782
251,71.85,0.98328331297284,0.11912348209676978,53.227102259271355
252,72.16,1.0006637740767128,0.1103639116438356,52.91992292217117
253,72.45,1.016990120662593,0.10230831815739291,52.63278498895701
254,72.75,1.0002694203815394,0.09378581626186824,52.33574574770099
255,73.04,0.9841060767765207,0.08554739776286105,52.048607814486836
256,73.34,0.9673853764954672,0.07702489586733637,51.75156857323081
257,73.65,0.9501073195383783,0.0682183105752942,51.44462802393292
258,73.95,0.9333866192573247,0.05969580867976952,51.1475887826769
259,74.26,0.9161085623002359,0.05088922338772737,50.84064823337901
260,74.6,0.8971584353150417,0.04123038790613274,60.504003759955516
261,74.91,0.8799376694468445,0.032322402585471185,60.196923507169295
262,75.2,0.8635389334945209,0.024327575314173545,59.90970761806917
263,75.49,0.847108221830413,0.0164921520900203,59.62291433774537
264,75.77,0.8312959555077796,0.008953683741564555,59.34631249830938
265,76.06,0.8145670760513596,0.02972930711162559,59.05964705851149
266,76.35,0.7979753847786717,0.037458308959941594,58.77256195097607
267,76.62,0.7824299651089974,0.044617720542852055,58.50499859145316
268,76.92,0.7649736694408882,0.052375082114620455,58.2076043576959
269,77.2,0.7488805228515218,0.05990434636181781,57.929893031380644
270,77.49,0.7324560888439409,0.06785930994113717,57.642712347324164
271,77.77,0.7166729423500974,0.07557813775692657,57.365603152398286
272,78.05,0.700735944235258,0.08301434453741796,57.088842903512564
273,78.33,0.6845603730773547,0.09023352200382614,56.81182642715793
274,78.62,0.668106210948176,0.09805205992762536,56.52499602047933
275,78.9,0.6525755392659781,0.10595211858265838,56.24825360692693
276,79.19,0.6366276699807043,0.11439123150756261,55.96123472166233
277,79.49,0.6197751495588798,0.12274998761234548,55.664253498123486
278,79.78,0.6035653365252317,0.13103982663698946,55.3767459909153
279,80.07,0.5875127327506616,0.13956462261987188,55.08900005996442
280,80.39,0.5696680860822116,0.14890387569301305,54.77121933080044
281,80.81,0.546275466800129,0.16131827052862632,54.35366764702237
282,81.23,0.5232572110023208,0.17393786754217916,53.93680797760001
283,81.53,0.506981704996935,0.1831148418193572,53.63907038839494
284,81.84,0.48982446918297273,0.19232161092119027,53.33114040273932
285,82.13,0.4738838517384198,0.20108472827556664,53.042939007116345
286,82.53,0.4516353292764127,0.21293833358556288,52.64527642007639
287,82.96,0.42753361824407704,0.2254060063438888,52.2180725614406
288,83.32,0.4077393163763091,0.23629834291642915,51.86022935807295
289,83.65,0.38942003189112817,0.24624326160187748,51.53167919575962
290,83.97,0.371681698014166,0.2558468303934298,51.21333547287407
291,84.28,0.3542276008281071,0.26472017249242574,50.90545582645713
292,84.58,0.33743887680551815,0.2734540863437006,50.60738155181387
293,84.92,0.3184064701968221,0.2834085289514474,50.26933893969153
294,85.24,0.29661556892754876,0.28448843508380456,49.95118118710579
295,85.54,0.276186598987605,0.28550084708288936,49.65290829405666
296,85.84,0.2557576290476612,0.2865132590819742,49.35463540100753
297,86.15,0.23464769344305264,0.2875594181476952,49.046420078190096
298,86.45,0.21421872350310886,0.28857183014678,48.748147185140965
299,86.75,0.19378975356316508,0.28958424214586487,48.449874292091835
300,87.05,0.1733607836232213,0.2905966541449497,48.151601399042704
301,87.35,0.15293181368327752,0.29160906614403453,57.853328505993574
302,87.65,0.14213755310676762,0.278561460013943,57.55505561294444
