,t,x,y,energy
0,49.82,0.3197201449310443,0.6461677101866574,49.855487863353964
1,50.11,0.3360192552822772,0.6544408892522898,49.71553462186397
2,50.4,0.352398921102432,0.6625128727776323,49.57597411570358
3,50.68,0.36853461894668726,0.6699765158958655,49.44106125908542
4,50.98,0.386037959960224,0.6775968102102611,49.296863171189095
5,51.27,0.40293288422791107,0.684952416367663,49.15760966163498
6,51.57,0.42016223614819154,0.69279927990036,49.013802073514
7,51.9,0.43921079545754355,0.7011539799381384,48.85612387453775
8,52.21,0.45703206668039903,0.7092097789035465,48.707624728495965
9,52.5,0.47370148053401095,0.7168379404384261,48.56840916788435
10,52.79,0.49297150005899515,0.7192075781481156,58.42919360727273
11,53.1,0.513576022470661,0.7212487718493548,58.28081157629811
12,53.41,0.5340649457546687,0.7234198422763672,58.13286674832441
13,53.75,0.5566202247842267,0.7255968165923627,57.97038202621506
14,54.1,0.5799079160527356,0.7278947463021577,57.80274279372786
15,54.41,0.6006026787248756,0.7296506837140646,57.654152977675544
16,54.71,0.6206114429480046,0.7316675850148199,57.51019449867446
17,55.0,0.6398265627659675,0.7338340111594497,57.37144116027593
18,55.3,0.6598651660778458,0.7356648969091346,57.22749189056108
19,55.59,0.6791748576217814,0.7309924546619396,57.08835831966376
20,55.88,0.69836779761167,0.7286374743247114,56.949523038048625
21,56.17,0.7175064124596627,0.7259819509938413,56.810614391351464
22,56.48,0.7378715693925924,0.7230191109734545,56.66241818535665
23,56.77,0.7569301826020958,0.7204206450387823,56.52395311893725
24,57.08,0.7773224242694724,0.7176037513005192,56.37580270348796
25,57.61,0.8124753981283857,0.7135009885195553,56.121910884986825
26,58.14,0.8473066968134924,0.7087410819354726,55.868841260645105
27,58.45,0.8676485736047199,0.7058633961800889,55.720857208983396
28,58.73,0.8859304782546823,0.7029013140599568,55.58716373932056
29,59.0,0.9035215180856828,0.6998780433100096,55.45819061410309
30,59.28,0.9217450958507934,0.6969197005308619,55.324775846947595
31,59.57,0.9406650830999579,0.6938463695473678,55.18636985633478
32,59.85,0.9590826340593639,0.6911974803697356,55.05243879733042
33,60.13,0.9774904507132235,0.688221443138372,54.91813570954682
34,60.41,0.9960400962495898,0.6854471167682179,54.7834282838796
35,60.7,1.0153164984707108,0.6830259744655383,54.644128609153135
36,60.98,1.0339859685894968,0.6806467492455931,54.509314675918574
37,61.27,1.0533387820682607,0.6785490023594358,54.369971580807025
38,61.56,1.0726609272002647,0.6760064147194033,54.23032414651523
39,61.83,1.0907084602813477,0.6737598717529282,54.10016335814015
40,62.11,1.1010442947491328,0.6856918740755049,63.96518179982525
41,62.4,1.111812206118968,0.698084683413969,63.825028753315486
42,62.68,1.122280615424593,0.7099280578047942,63.69017225846191
43,62.96,1.132445303999483,0.721844548906404,63.55571926972918
44,63.24,1.1430316820325048,0.7335637489438687,63.42120770154162
45,63.54,1.154779514205707,0.7458654717067692,63.277312908102
46,63.84,1.1669165183193242,0.7107715294509728,63.13328688194747
47,64.17,1.1801468704781009,0.6974845589617032,62.97539581407197
48,64.47,1.1924339473186016,0.6854815735806872,62.8314947469179
49,64.76,1.2041867416694352,0.6738407366760704,62.69256019744116
50,65.04,1.2154914594818387,0.6626572224298607,62.55882581200168
51,65.33,1.226985337614535,0.6509660032664459,62.42037688441837
52,65.63,1.2384919523677593,0.6385922537397068,62.27677394419226
53,65.92,1.2500609517069363,0.6268080936061586,62.137632253938904
54,66.2,1.2608400741464854,0.6152435861686067,62.00341172957386
55,66.5,1.2719285519094925,0.6027012727588897,61.86004547719686
56,66.79,1.283009171689211,0.5906999664472736,61.721135257753936
57,67.08,1.2945408041850042,0.5788951434578519,61.58199315923283
58,67.39,1.3066958930751609,0.5662251649252183,61.433475359877704
59,67.7,1.3188902237313969,0.5535693791232391,61.28492106784842
60,67.99,1.2945957986706704,0.5417203415681378,61.14560049100724
61,68.28,1.2830893363591789,0.5298121377772051,61.00599480476704
62,68.58,1.297385807002424,0.5190193753512654,70.86157512934615
63,68.87,1.3109136065744762,0.5084771879956127,70.72245015395629
64,69.16,1.3247826377928715,0.49815223634512956,70.58316663159944
65,69.46,1.2860879696075806,0.48737269181817966,70.43937085117133
66,69.75,1.2725930320236574,0.4768568678999364,70.30047682678449
67,70.05,1.2590052510402627,0.46562795139292057,70.15637546708086
68,70.34,1.2461358502587458,0.45451540329222384,70.01668903813392
69,70.64,1.2326284315715388,0.4431058302185851,69.87198495633572
70,70.93,1.2199885420747407,0.43181286924629525,69.73213583351964
71,71.25,1.2060394113670685,0.4192967640852947,69.57754504179243
72,71.55,1.1931875498395852,0.40751320693064796,69.43306061121878
73,71.85,1.1804281512835446,0.39568319351932374,69.28862560131833
74,72.16,1.1667358886925794,0.38368689253591015,69.13893949228374
75,72.45,1.154024646579941,0.3724525150549686,68.99915598774602
76,72.75,1.140875307964378,0.3607882553852242,68.85434555082897
77,73.04,1.128176720479286,0.3495714407412058,68.7146870474152
78,73.34,1.1150076924303554,0.33797723668063295,68.57015730099613
79,73.65,1.1015793769282205,0.3258029477497557,68.42041538450147
80,73.95,1.088920489986254,0.3138733246659781,68.27578507129559
81,74.26,1.075872766603416,0.3015633878719902,68.12651958328142
82,74.6,1.0615727453343908,0.2881224965108023,67.96314212763565
83,74.91,1.04837962830442,0.27596936184147525,67.81422108139778
84,75.2,1.0363789151561282,0.26443369788482624,67.67509497075112
85,75.49,1.0241318100533854,0.2530169610017996,67.53583096338451
86,75.77,1.0127331877118941,0.24168246437140395,67.4010539752931
87,76.06,1.0007983042155404,0.22993940491362022,67.26106974764974
88,76.35,0.9884637777124125,0.2185181270659664,67.12151954807092
89,76.62,0.9769377968769022,0.20799101952882731,66.99199393972496
90,76.92,0.9637741374946901,0.19651790032988553,66.84806961505447
91,77.2,0.95124161955508,0.18589306489532414,66.7133647867912
92,77.49,0.9381688100737455,0.17488340448591505,66.57352800365913
93,77.77,0.9257951723366401,0.16411802888652854,66.43864732284915
94,78.05,0.9130628578677783,0.15366109594008964,66.3041006001555
95,78.33,0.9003731126092803,0.1432457916749246,66.16988839535942
96,78.62,0.8870778165534585,0.13265331261354749,66.03129972307727
97,78.9,0.8739816331302234,0.12269825859058758,65.89788035025279
98,79.19,0.8603530803634067,0.11240913508622304,65.75957531701712
99,79.49,0.8463842039117754,0.10161798707005035,65.61626483837392
100,79.78,0.833231155482676,0.09100956285313458,65.47806813780362
101,80.07,0.8199032616666334,0.08042888869157766,65.33942707887117
102,80.39,0.8048240135685857,0.06893727742508504,65.18604831066786
103,80.81,0.785181352738676,0.05370390359502978,64.98454754879717
104,81.23,0.7651144249575524,0.03887457973729595,64.78345058510565
105,81.53,0.7507684459806757,0.028223321812807584,64.63950253263293
106,81.84,0.7356240242792307,0.017360847830285398,64.49029639747138
107,82.13,0.7212744101735499,0.007347339414066798,64.35073076637013
108,82.53,0.7012506038850493,0.03743615334345433,64.15861047568214
109,82.96,0.6797215553131803,0.052074412018894733,63.951683674118065
110,83.32,0.6619833199119249,0.06457533269126395,63.77838547636557
111,83.65,0.6452290316875455,0.07574527476370334,63.61902644497087
112,83.97,0.6287762040506376,0.08646495169547033,63.46422507276413
113,84.28,0.6124795128594923,0.09646177320060795,63.31454732247125
114,84.58,0.5967846791511521,0.10613409871611754,63.16998877600412
115,84.92,0.5787299481947896,0.11685309237875263,63.006133480537045
116,85.24,0.5616085370887014,0.12676463670671315,62.85212726625995
117,85.54,0.5455152525703867,0.1361105672975877,62.70737626957837
118,85.84,0.5294264635603864,0.14535969472220917,62.5630204695961
119,86.15,0.5125695515899141,0.15478437944279685,62.41347742649365
120,86.45,0.49582977558874863,0.16354654991472714,62.2684398723961
121,86.75,0.47901990484107565,0.17219710808823405,62.12353213176258
122,87.05,0.4619982066644643,0.18047784752023782,61.979092305100075
123,87.35,0.44463225231208514,0.1883933945719681,61.83449610122208
124,87.65,0.4269972010950669,0.19594421124950967,61.689971951265264
125,87.95,0.40937626542895533,0.2035827373704545,61.54522694602152
126,88.25,0.39157515241724483,0.2108826500885609,61.40079024724379
127,88.55,0.3734260573959123,0.21785272391398308,61.25586475238001
128,88.86,0.354693730516386,0.2251217730274576,61.10600599345478
129,89.15,0.33686395451809986,0.23154588857791403,60.96557512841441
130,89.45,0.31861599924848166,0.23848137934571811,60.820327267849905
131,89.75,0.3003522422189925,0.24556027696054333,60.67459375734834
132,90.05,0.28215304996042384,0.25278960147807084,60.52868853562915
133,90.34,0.2645240694648939,0.2597376857296961,60.38761240835056
134,90.65,0.24593151010452718,0.2674208828855711,60.23709670060917
135,90.96,0.22708436917837377,0.2747081442122099,60.086694797198234
136,91.28,0.20734354232209018,0.2817621839730557,59.93154393934667
137,91.59,0.18830645268814517,0.288840216086304,59.78093255411183
138,91.9,0.1692233958537438,0.2958597694880875,59.630288795034915
139,92.2,0.1505376787304913,0.30245164325959545,59.48411792065864
140,92.53,0.1299987629968812,0.3098140395655296,59.32309135630244
141,92.85,0.10987571872681903,0.3165596632524572,59.1671019864488
142,93.17,0.08979930886310505,0.3234295021244037,59.01098943218169
143,93.49,0.06978251021144549,0.33033310919866316,58.855047020525475
144,93.82,0.04891997451495144,0.3372757887481644,58.6937336017409
145,94.14,0.02856371187543711,0.3437895101833548,58.537312395445696
146,94.47,0.007546309164869281,0.3506568430772731,58.375512572521025
147,94.78,0.05409553405919259,0.3566811893230149,58.22354871230733
148,95.17,0.078936854981943,0.3645398536150342,58.032968197846714
149,95.5,0.10002807298164193,0.37108686130221313,57.87164371648468
150,95.82,0.12077555294123551,0.37709729059486524,57.7146952035843
151,96.15,0.14239418237525855,0.38290895226020777,57.55270306657737
152,96.49,0.16434805366493072,0.3893718031693972,57.38617101480936
153,96.82,0.18570969080875102,0.3956684334423989,57.2242422505357
154,97.19,0.20970369068869738,0.4026792134550665,57.04260767737273
155,97.53,0.23189594884590461,0.40896589496876745,56.87541297553102
156,97.87,0.25410438503624927,0.4152384178566253,56.70817759157733
157,98.2,0.2754951004778972,0.4215854640947539,56.54600061866448
158,98.53,0.2969315426903979,0.4278226096994177,56.383875858373514
159,98.87,0.3188074962670727,0.43475694441812296,56.216551381008465
160,99.21,0.340668005692821,0.44190116264797474,56.04876525088427
161,99.55,0.3627078688525701,0.4485260671029002,55.88146712050708
162,99.88,0.38422394771525287,0.4548010114740211,55.718898452716395
163,100.22,0.40645579006449795,0.4611960794878813,55.55127941631843
164,100.57,0.4294724406774527,0.46744771454943085,55.378882712343895
165,100.93,0.4530348754871127,0.47416588898470274,55.20142249772966
166,101.26,0.4744030657274812,0.4805746519151241,55.03920000498015
167,101.61,0.496758001051156,0.4878914311305859,54.86722859503175
168,101.99,0.5208866893797901,0.4961783581547478,54.68024466462346
169,102.44,0.549691968411388,0.5058347084437441,54.458216961710725
170,102.85,0.5756255813588395,0.5150632156833884,54.25612903713535
171,103.2,0.5973358894386038,0.5234195937850192,54.084102430114505
172,103.55,0.6188861193361117,0.5321729978259907,53.91157026681771
173,103.9,0.6404954609769006,0.5409939469837705,53.73858248656039
174,104.25,0.6623023576140629,0.549355015666648,53.56612955009766
175,104.6,0.6843072977878872,0.5573487532172081,53.39387311706595
176,104.93,0.7050490081540008,0.5650510602110861,53.231019479143654
177,105.28,0.7272244139616517,0.5729607758936809,53.05825805807709
178,105.65,0.7508429093903628,0.5810490048176342,52.87559851471937
179,106.0,0.7729204285869522,0.5891656769576733,52.7026842623402
180,106.34,0.7944033253540149,0.5969343104799194,52.534879281112424
181,106.68,0.8158536547065622,0.6046420838737289,52.367383926030115
182,107.02,0.8374719587512407,0.612229109967277,52.19949057274662
183,107.35,0.8585012211131405,0.6197026859403324,52.03603296779782
184,107.7,0.8808691812920005,0.6273314736437182,51.863191754865056
185,108.15,0.9093656456771352,0.637676513859147,51.640648229763336
186,108.69,0.9439855612448903,0.6495103613112462,51.37333226668736
187,109.08,0.9692198978143612,0.6578603195516888,51.17977387861486
188,109.41,0.9903026149970665,0.6651970705999605,51.016455739941776
189,109.74,1.0113415807349766,0.6727157495510511,50.8528321787956
190,110.08,1.0330511951426458,0.6803275842466603,50.68447454696149
191,110.42,1.0544717307942562,0.6883078134089118,50.516343109016525
192,110.74,1.074364582806633,0.6961259109344671,50.35835218664912
193,111.08,1.095215593958947,0.7046572186843993,50.19101606263532
194,111.4,1.1149246238200565,0.7126593641540675,50.03325014908535
195,111.74,1.1356983734156663,0.7215130224945148,49.865234329523126
196,112.07,1.155865839288461,0.7302378472249964,49.70172215832255
197,112.41,1.1764151789740365,0.739570102810603,49.53308526095473
198,112.74,1.196293936859177,0.7201713078119784,49.36984304942227
199,113.08,1.216897395636923,0.7110492435276565,49.20167352621656
200,113.42,1.2372303368350868,0.7014398587695341,49.0329881662979
201,113.77,1.2580933099500513,0.6914103294547165,48.85914485667322
202,114.12,1.2787895307343389,0.6811796329848168,48.68527098722064
203,114.46,1.2993328488689313,0.6716166302814632,48.51588685724909
204,114.79,1.319576299223914,0.6628376519484502,48.35188551740069
205,115.13,1.2845218938340908,0.6538129035284024,48.18279248233078
206,115.46,1.2645064841796725,0.6447182524208662,48.01870394219434
207,115.83,1.2422070771231588,0.6344806986770642,47.83517360873145
208,116.19,1.2207277796221294,0.6244226234879564,47.657164087558016
209,116.53,1.2008835886847995,0.6144771770888008,47.489275755049846
210,116.87,1.1814763092629827,0.6041658511352853,47.32178767035935
211,117.21,1.1616283229454936,0.5942648395740916,47.15404192902646
212,117.55,1.141841819080476,0.584139533123701,46.98573889854027
213,117.9,1.1367083262235247,0.5660512909356041,56.81248577892213
214,118.24,1.1324385302819246,0.5483867394706708,56.64426336013519
215,118.58,1.1281330406449483,0.5308092549326655,56.47655835718291
216,118.93,1.1240106544359898,0.5126166745907386,56.303561394922305
217,119.28,1.1202516818884933,0.4943102190431935,56.130123887935916
218,119.64,1.1160168256803462,0.47556157077295336,55.951959501556864
219,119.98,1.1120347375456288,0.4578431643149349,55.783635508261
220,120.32,1.1080855483959013,0.4400861355608045,55.6150938500002
221,120.67,1.1042888607551835,0.4218477963699506,55.4420593991789
222,121.01,1.1004479377293974,0.40421082664164,55.2743604970718
223,121.37,1.0969779559402908,0.3855416685809737,55.097259123857675
224,121.73,1.0932235748095347,0.3669299916601917,54.92032546351637
225,122.07,1.089484562500607,0.3493451920806353,54.75303412936738
226,122.42,1.0860005338735765,0.33122011407560403,54.58093936128169
227,122.76,1.083186637356104,0.3136331552953481,54.414248753719555
228,123.11,1.0799267478420875,0.29557827179686025,54.24274785548854
229,123.47,1.0761731532608692,0.27697355744031077,54.06585881890443
230,123.83,1.072539878332461,0.25841675156367006,53.88935820346757
231,124.19,1.0690717809750787,0.23993610455718536,53.713452891633295
232,124.55,1.066083269686931,0.22135582877691987,53.53721359679686
233,124.89,1.0629479273774,0.20380938342705823,53.37058581626899
234,125.24,1.0596733048157352,0.18570980993294978,53.19879199483823
235,125.58,1.056155668650612,0.1681771662332047,53.03199325502844
236,126.03,1.0515483711869082,0.14491318954366839,52.810891071740386
237,126.42,1.0474326267380862,0.12483125892648664,52.61968854451557
238,126.77,1.0435221033014732,0.10674639325198983,52.44753823984773
239,127.12,1.0400846883735815,0.08863733368927997,52.2755766845272
240,127.47,1.0367861058063006,0.07052352992728422,52.10367710825084
241,127.81,1.0333233941081237,0.05287328665061487,51.93617273098945
242,128.16,1.0297797927567762,0.034702808235320626,51.763749322945436
243,128.5,1.0262866584758563,0.017003624556177554,51.59591376334948
244,128.84,1.0231838951393157,-0.0007752903585451082,51.427831590879094
245,129.19,1.019545844969341,0.05031385979034926,51.25459425948027
246,129.53,1.016450909370064,0.06806024085167503,51.086723418554826
247,129.88,1.0127314599873123,0.08619278148648801,50.914414872386416
248,130.21,1.0085893298124335,0.10313673183511982,50.75240785478725
249,130.56,1.0045070332095103,0.1210867792996528,50.580973380990784
250,130.9,1.001223096866518,0.13857211116095525,50.41463597279878
251,131.25,0.9974458224776815,0.15651901199703736,50.243458611527814
252,131.61,0.9938738472625189,0.17496715966065152,50.067688627442664
253,131.97,0.9902969474772207,0.19346914047806252,49.891574287597905
254,132.33,0.9867066974410661,0.21188211483743596,49.71601441032819
255,132.68,0.9827550760468732,0.2296894137630301,49.54558505056281
256,133.04,0.9780028845244232,0.24789369128713257,49.37040225421895
257,133.4,0.9727422127304518,0.26603163489822196,49.19514131020577
258,133.8,0.9676342061548798,0.28628358060710496,49.00049305680202
259,134.17,0.9635454405255198,0.30502303997173186,48.820933438469325
260,134.54,0.9596975950858636,0.32371363434025063,48.64186429139142
261,134.89,0.9567740127834898,0.34152952030574596,48.472087301328614
262,135.25,0.9544300587239131,0.3599192138183117,48.297393288605214
263,135.61,0.9526847825255916,0.3782830370897714,48.12310320602927
264,135.96,0.9514856711861357,0.396085175402045,47.95412922939428
265,136.33,0.9505327380939902,0.4149672971513388,47.77516525909051
266,136.72,0.9500841248261516,0.4348842014128209,47.58651017134803
267,137.09,0.964567521231889,0.4503486059118894,57.407529703489786
268,137.45,0.9782734597168546,0.46565890611406513,57.23304353167709
269,137.81,0.9926055254573201,0.4807409628209439,57.058048631799664
270,138.17,1.007511400573801,0.49552219757853244,56.882975396122916
271,138.53,1.0229713393607454,0.5100596616615171,56.70750279867574
272,138.88,1.037432154793539,0.5245211501120759,56.53691783017359
273,139.25,1.0523214193225507,0.5400394954236175,56.356527116067106
274,139.62,1.0667468608160477,0.555816989697667,56.17605908769702
275,140.0,1.0812235379260757,0.5722544550494927,55.9903811186885
276,140.37,1.0955534609655246,0.5881685601424657,55.80944822149123
277,140.74,1.110021161191552,0.6041194086702304,55.62794961766313
278,141.13,1.1251209102988644,0.6208957657869068,55.4372385928305
279,141.52,1.1402843527616928,0.6376951088108619,55.24623447152755
280,141.9,1.165489187197801,0.6319182804900172,55.060127891796476
281,142.36,1.196000302567827,0.6249252777858366,64.83484097949042
282,142.88,1.2305320756232792,0.6171337824529531,64.58019176552013
283,143.29,1.2337315292451376,0.6383226444885126,64.37941065450508
284,143.67,1.236696876504421,0.657961101984885,74.19332084429601
285,144.06,1.2399746353643266,0.6781741132506314,74.00183562742873
286,144.45,1.2428831583618376,0.6983511596401817,73.81078133469445
287,144.82,1.245821333548093,0.717434205303091,73.62980639078877
288,145.21,1.2482747551552282,0.7376780082321295,73.43854322893556
289,145.63,1.250481615551245,0.7093299180676167,73.23311734004807
290,146.11,1.2524946014781082,0.6845172254835358,72.99873785431544
291,146.97,1.2573857201275986,0.6400339409457578,72.57819358120642
292,147.58,1.2869467901123748,0.662633953245922,72.27990055028026
293,147.94,1.3043926674804396,0.6759716654230679,82.10385876153696
294,148.37,1.3249306651124866,0.6919860461313405,81.89420837043214
295,148.76,1.2814168832419823,0.7063763193598982,81.70459537822275
296,149.15,1.2626452725234385,0.7205946102200822,81.51536750813833
297,149.51,1.2458290914519625,0.7340494396896073,81.34087683487861
298,149.86,1.229364669866413,0.7470356503278118,81.17129451796221
299,150.2,1.2137406129763622,0.7088534124900938,81.00661599745028
300,150.55,1.198183481206,0.6952402581490362,80.83697403712821
