,t,x,y,energy,sight
0,37.352,0.7277863704565103,0.9561608063767153,49.944105521441344,94.05043200381682
1,37.406,0.7269683206962517,0.95886998690827,49.89213540599033,94.05043200381682
2,37.464,0.7261315168165212,0.9618063976016822,49.8362280061757,94.05043200381682
3,37.526,0.7252861780450389,0.9649582744230111,49.77646890545611,94.05043200381682
4,37.588,0.7243516085865709,0.968086443109826,49.71670006534512,94.05043200381682
5,37.646,0.7235584474492539,0.9710320027299748,49.660810828574554,94.05043200381682
6,37.702,0.7228358418551344,0.9738922318521019,49.60681804956686,94.05043200381682
7,37.764,0.7219711535887929,0.9770494983762991,49.54699326039115,94.05043200381682
8,37.82,0.7211761832908425,0.9798937091408378,49.49298048647279,94.05043200381682
9,37.876,0.7203865132814021,0.9827476381299489,49.438916878656315,94.05043200381682
10,37.934,0.7195343533876749,0.9856799683646414,49.38300739482375,94.05043200381682
11,37.988,0.7186970136224105,0.9803671726180412,49.33103985744215,94.05043200381682
12,38.044,0.7178710280355864,0.9775482068522081,49.27712778992387,94.05043200381682
13,38.1,0.7169888138325143,0.9747467181264124,49.22321809650186,94.05043200381682
14,38.158,0.7160611438770018,0.9718515067259101,49.167394644660746,94.05043200381682
15,38.214,0.7151740887532132,0.9690669373517234,49.113578825946924,94.05043200381682
16,38.272,0.7141876507259187,0.9662080185854997,49.057857047905635,94.05043200381682
17,38.33,0.7132364517395604,0.9633294302242122,49.00208816386209,94.05043200381682
18,38.388,0.7122229032341415,0.9604703401477105,48.94630806689624,94.05043200381682
19,38.444,0.7112197653543378,0.9577281603431054,48.892508524050605,94.05043200381682
20,38.5,0.7101856857907908,0.9549845589326376,48.83863151339051,94.05043200381682
21,38.56,0.7090466991572824,0.9520457718911437,48.78083990527823,94.05043200381682
22,38.618,0.7079734916908096,0.9491961377860262,48.724985566100486,94.05043200381682
23,38.674,0.7068870651260466,0.9464538218071213,48.67099544467567,94.05043200381682
24,38.728,0.7059248610933243,0.943785394434433,48.618983002130285,94.05043200381682
25,38.786,0.7048294027328013,0.9409510649991594,48.563169413435425,94.05043200381682
26,38.84,0.7038148236984896,0.9383157679966011,48.51123858155402,94.05043200381682
27,38.896,0.7027354931725027,0.9355883629455466,48.457353907045466,94.05043200381682
28,38.954,0.7015471903821091,0.9328064806321885,48.4016274144773,94.05043200381682
29,39.008,0.7004471721291992,0.9302157024879902,48.349755593402946,94.05043200381682
30,39.066,0.6992683935913899,0.9274317432218758,48.29404072429703,94.05043200381682
31,39.122,0.6980883146885782,0.9247535559408243,48.24019801055269,94.05043200381682
32,39.178,0.6969683678196686,0.922063567161052,48.18643743022892,94.05043200381682
33,39.234,0.6958979198833283,0.9193536040492128,48.132677466863186,94.05043200381682
34,39.292,0.6948786410840784,0.9165285597448893,48.0770901865322,94.05043200381682
35,39.35,0.693807311431417,0.913715555214314,48.02145933728225,94.05043200381682
36,39.406,0.6928551052027327,0.910961653652682,47.967698372709016,94.05043200381682
37,39.468,0.6918755191812107,0.9078889318551393,47.90818361565641,94.05043200381682
38,39.532,0.6908235989296754,0.9047222910566723,47.846699991965856,94.05043200381682
39,39.59,0.6898925365915363,0.9018313479137854,47.790895907714045,94.05043200381682
40,39.65,0.6889057464221786,0.8988390705041496,47.73311067758159,94.05043200381682
41,39.706,0.6879210983830057,0.8960722812477048,47.67920314850931,94.05043200381682
42,39.764,0.6868692742446296,0.8932167782452536,47.62336137932665,94.05043200381682
43,39.822,0.6857399251353746,0.8903987477996977,47.56756541413623,94.05043200381682
44,39.876,0.6846851006527324,0.8877708691438342,47.51558451871033,94.05043200381682
45,39.932,0.6835601928726829,0.8850552262074496,47.46166013024627,94.05043200381682
46,39.99,0.6823413081538243,0.8822670216702548,47.40581885206562,94.05043200381682
47,40.046,0.6811670967117631,0.8795661185246578,47.351858011339665,94.05043200381682
48,40.102,0.6799501988317518,0.8768821414517077,47.29788530590959,94.05043200381682
49,40.158,0.6787014697072254,0.874225443068041,47.24398571518644,94.05043200381682
50,40.214,0.6774162224099171,0.871571693040757,47.1900025053721,94.05043200381682
51,40.274,0.6758507007101925,0.8688276475351874,47.132163351999594,94.05043200381682
52,40.332,0.6743373630671254,0.8661750702131368,47.07625217040617,94.05043200381682
53,40.388,0.6728762094807159,0.8636139610746051,47.02226896059183,94.05043200381682
54,40.446,0.6713628718376489,0.8609613837525545,46.96635777899841,94.05043200381682
55,40.5,0.6699539023078968,0.8584917427975419,46.914302540963156,94.05043200381682
56,40.562,0.6683361965515148,0.8556562291084534,46.85453541581157,94.05043200381682
57,40.62,0.6668228589084477,0.8530036517864028,46.798624234218146,94.05043200381682
58,40.678,0.6653095212653807,0.8503510744643522,46.74271305262472,94.05043200381682
59,40.734,0.6638483676789712,0.8477899653258205,46.68872984281038,94.05043200381682
60,40.792,0.6623350300359041,0.84513738800377,46.63281866121696,94.05043200381682
61,40.848,0.6608738764494946,0.8425762788652383,46.57883545140262,94.05043200381682
62,40.904,0.6594127228630849,0.8400151697267066,46.52485224158828,94.05043200381682
63,40.962,0.6578993852200179,0.837362592404656,46.468941059994854,94.05043200381682
64,41.018,0.6564382316336084,0.8348014832661244,46.414957850180514,94.05043200381682
65,41.076,0.6549248939905413,0.8321489059440739,46.35904666858709,94.05043200381682
66,41.132,0.6534637404041318,0.8295877968055422,46.30506345877275,94.05043200381682
67,41.192,0.6518982187044072,0.8268437512999725,46.247224305400245,94.05043200381682
68,41.248,0.6504370651179976,0.8242826421614409,46.193241095585904,94.05043200381682
69,41.302,0.6490280955882455,0.8218130012064282,46.14118585755065,94.05043200381682
70,41.36,0.6475147579451785,0.8191604238843777,46.08527467595723,94.05043200381682
71,41.416,0.6461009163702522,0.816564257758961,46.03124293414457,94.05043200381682
72,41.472,0.6447168289206009,0.8139400127187211,45.977142759020836,94.05043200381682
73,41.534,0.6431856808230169,0.8110220514287269,45.917178747374365,94.05043200381682
74,41.6,0.641558146245645,0.807915925033579,45.853353727397355,94.05043200381682
75,41.66,0.6400625310936682,0.8050910749399243,45.79527692519598,94.05043200381682
76,41.716,0.6386042102082488,0.802485023665616,45.74105221314564,94.05043200381682
77,41.774,0.6371219259825673,0.7997670134740111,45.68487213197331,94.05043200381682
78,41.832,0.6355547461962003,0.7970807873852015,45.62860220870645,94.05043200381682
79,41.89,0.6340077455800143,0.7943851252070016,45.57234469599193,94.05043200381682
80,41.944,0.6361223800077421,0.7924098570892346,45.51996701174048,94.05043200381682
81,42.004,0.6384719738163287,0.7902151147361602,45.46176958479443,94.05043200381682
82,42.062,0.6407432478312957,0.7880935304615216,45.405512072079915,94.05043200381682
83,42.12,0.6430145218462626,0.785971946186883,45.3492545593654,94.05043200381682
84,42.176,0.6452074760676101,0.7839235199906802,45.29493696088242,94.05043200381682
85,42.234,0.647478750082577,0.7818019357160416,45.2386794481679,94.05043200381682
86,42.294,0.6498283438911636,0.7796071933629672,45.18048202122185,94.05043200381682
87,42.35,0.652021298112511,0.7775587671667645,45.12616442273887,94.05043200381682
88,42.406,0.6542142523338584,0.7755103409705617,45.071846824255886,94.05043200381682
89,42.464,0.6564855263488254,0.7733887566959231,45.01558931154137,94.05043200381682
90,42.524,0.658835120157412,0.7711940143428487,44.95739188459532,94.05043200381682
91,42.58,0.6610280743787593,0.7691455881466459,44.903074286112336,94.05043200381682
92,42.64,0.6633776681873459,0.7669508457935715,44.844876859166284,94.05043200381682
93,42.698,0.6656489422023129,0.7648292615189329,44.78861934645177,94.05043200381682
94,42.756,0.6679202162172799,0.7627076772442943,44.73236183373725,94.05043200381682
95,42.812,0.6701131704386273,0.7606592510480915,44.67804423525427,94.05043200381682
96,42.868,0.6723061246599747,0.7586108248518888,44.62372663677129,94.05043200381682
97,42.926,0.6745773986749417,0.7564892405772501,44.56746912405677,94.05043200381682
98,42.982,0.6767703528962892,0.7544408143810474,44.51315152557379,94.05043200381682
99,43.038,0.6789633071176365,0.7523923881848446,44.45883392709081,94.05043200381682
100,43.094,0.681156261338984,0.7503439619886418,44.404516328607826,94.05043200381682
101,43.15,0.6833492155603313,0.748295535792439,44.350198730124845,94.05043200381682
102,43.206,0.6855421697816788,0.7462471095962362,44.29588113164186,94.05043200381682
103,43.26,0.6876568042094067,0.7442718414784693,44.24350344739042,94.05043200381682
104,43.316,0.6898497584307541,0.7422234152822665,44.189185848907435,94.05043200381682
105,43.372,0.6920427126521015,0.7401749890860637,44.134868250424454,94.05043200381682
106,43.43,0.6943139866670685,0.7380534048114251,44.07861073770994,94.05043200381682
107,43.49,0.6966635804756549,0.7358586624583507,44.020413310763885,94.05043200381682
108,43.552,0.699091494077861,0.7335907620268405,43.9602759695863,94.05043200381682
109,43.61,0.7013627680928279,0.7314691777522019,43.90401845687178,94.05043200381682
110,43.67,0.7037123619014144,0.7292744353991275,43.84582102992573,94.05043200381682
111,43.724,0.7058269963291423,0.7272991672813606,43.793443345674284,94.05043200381682
112,43.786,0.7082549099313483,0.7250312668498504,43.7333060044967,94.05043200381682
113,43.844,0.7105261839463153,0.7229096825752117,43.67704849178218,94.05043200381682
114,43.902,0.7127974579612822,0.7207880983005731,43.620790979067664,94.05043200381682
115,43.96,0.7150687319762492,0.7186665140259345,43.56453346635315,94.05043200381682
116,44.016,0.7172616861975967,0.7166180878297317,43.510215867870166,94.05043200381682
117,44.072,0.7194546404189441,0.714569661633529,53.455898269387184,94.05043200381682
118,44.128,0.7174601416714956,0.712327548156329,53.4015806709042,94.05043200381682
119,44.184,0.7154656429240471,0.7100854346791291,53.34726307242122,94.05043200381682
120,44.242,0.7133999120784755,0.7077632457206006,53.291005559706704,94.05043200381682
121,44.302,0.7112629491347807,0.7053609812807434,53.23280813276065,94.05043200381682
122,44.358,0.7092684503873322,0.7031188678035435,53.17849053427767,94.05043200381682
123,44.416,0.7072027195417606,0.700796678845015,53.122233021563154,94.05043200381682
124,44.47,0.7052794528924353,0.6986346408491435,53.06985533731171,94.05043200381682
125,44.528,0.7032137220468637,0.696312451890615,53.01359782459719,94.05043200381682
126,44.584,0.7012192232994152,0.694070338413415,52.95928022611421,94.05043200381682
127,44.64,0.6992247245519667,0.6918282249362151,52.90496262763123,94.05043200381682
128,44.696,0.6972302258045183,0.6895861114590152,52.85064502914825,94.05043200381682
129,44.758,0.6950220307627004,0.6871037715378294,52.79050768797066,94.05043200381682
130,44.814,0.6930275320152519,0.6848616580606295,52.73619008948768,94.05043200381682
131,44.872,0.6909618011696803,0.682539469102101,52.67993257677316,94.05043200381682
132,44.926,0.689038534520355,0.6803774311062296,52.627554892521715,94.05043200381682
133,44.982,0.6870440357729065,0.6781353176290297,52.573237294038734,94.05043200381682
134,45.038,0.6850495370254581,0.6758932041518297,52.51891969555575,94.05043200381682
135,45.096,0.6829838061798865,0.6735710151933011,52.462662182841235,94.05043200381682
136,45.152,0.680989307432438,0.6713289017161012,52.408344584358254,94.05043200381682
137,45.208,0.6789948086849896,0.6690867882389012,62.35402698587527,94.05043200381682
138,45.264,0.6769965350058846,0.6668315150121881,62.29963036500141,94.05043200381682
139,45.32,0.6750599776968098,0.6645129382138264,62.245184215157686,94.05043200381682
140,45.374,0.6731535294743811,0.6623092621305526,62.19267718760682,94.05043200381682
141,45.432,0.6711849093191689,0.6598842098318597,62.136320526602354,94.05043200381682
142,45.49,0.6692887156906492,0.657409308905438,62.08000043131666,94.05043200381682
143,45.55,0.6672959324005827,0.654878995652786,62.02176702151824,94.05043200381682
144,45.608,0.6653582202540211,0.6524356834978108,61.96544300818697,94.05043200381682
145,45.67,0.6633776947971576,0.6497735536728081,61.90533334773171,94.05043200381682
146,45.728,0.6614764385317421,0.6473235551464654,61.849119679485455,94.05043200381682
147,45.788,0.6594841699755033,0.6447972386025478,61.79090839879438,94.05043200381682
148,45.842,0.6576372432371766,0.642552510355497,61.73844622013974,94.05043200381682
149,45.896,0.6557748461018497,0.6403186876331324,61.685974638567586,94.05043200381682
150,45.954,0.6538477013212097,0.6378612395156896,61.62962146697455,94.05043200381682
151,46.01,0.65192121469226,0.6355485172537345,61.57524537480425,94.05043200381682
152,46.066,0.6500120971723367,0.6332074113303245,61.520799803260694,94.05043200381682
153,46.124,0.6480743231986756,0.6307397140131872,61.464353032667994,94.05043200381682
154,46.178,0.6463080831285999,0.6284303264727961,61.41188762717036,94.05043200381682
155,46.236,0.6443423872203733,0.6259845861477706,61.35543972645028,94.05043200381682
156,46.296,0.6423752134273204,0.6234039020751849,61.297051871171476,94.05043200381682
157,46.354,0.6405417219732606,0.6208476782148554,61.240552671920916,94.05043200381682
158,46.408,0.6388722043718619,0.6184267270537523,61.18787340847155,94.05043200381682
159,46.464,0.6371754734913796,0.6159033888391224,61.13330047785239,94.05043200381682
160,46.522,0.6354929597804324,0.6132549465880038,61.07685309459783,94.05043200381682
161,46.576,0.6339949033591905,0.6107416040998783,61.024268990205506,94.05043200381682
162,46.634,0.632310034149379,0.6080990413119649,60.967845257530634,94.05043200381682
163,46.69,0.6307175765718397,0.6055092464685978,60.913275666336496,94.05043200381682
164,46.748,0.6291403049650615,0.6027710129866972,60.85668538960119,94.05043200381682
165,46.802,0.6277304016629255,0.6001783932888787,60.80393963781121,94.05043200381682
166,46.86,0.6262501718742823,0.5973827327160444,60.74732801555227,94.05043200381682
167,46.916,0.6248676584215005,0.5946469577426163,60.6925982014571,94.05043200381682
168,46.974,0.6235066469023958,0.5917635544417447,60.63582580031188,94.05043200381682
169,47.03,0.6221635644611558,0.588981126223526,60.58094004463074,94.05043200381682
170,47.086,0.620753069084175,0.5862203774770437,60.525986612835474,94.05043200381682
171,47.142,0.6194062344402205,0.5834398649578109,60.471101441110484,94.05043200381682
172,47.196,0.6181115741069828,0.58075668734399,60.41817645408996,94.05043200381682
173,47.254,0.6167210130083202,0.5778747558328492,60.3613310976605,94.05043200381682
174,47.308,0.6154263526750825,0.5751915782190283,60.30840611063998,94.05043200381682
175,47.366,0.61403579157642,0.5723096467078875,60.25156075421052,94.05043200381682
176,47.422,0.6126931808604699,0.5695270921454066,60.19667558248553,94.05043200381682
177,47.486,0.6111587686136698,0.5663470297882858,60.13394967194269,94.05043200381682
178,47.546,0.6097202571322946,0.5633657213284848,60.075144130808766,94.05043200381682
179,47.606,0.6082817456509195,0.5603844128686839,60.016338589674845,94.05043200381682
180,47.664,0.6068911845522569,0.557502481357543,59.95949323324539,94.05043200381682
181,47.72,0.6055485738363069,0.5547199267950622,59.9046080615204,94.05043200381682
182,47.778,0.6041580127376442,0.5518379952839213,59.84776270509094,94.05043200381682
183,47.834,0.6028154020216941,0.5490554407214405,59.79287753336595,94.05043200381682
184,47.892,0.6014248409230316,0.5461735092102996,59.7360321769365,94.05043200381682
185,47.95,0.600034279824369,0.5432915776991588,59.67918682050704,94.05043200381682
186,48.006,0.5986916691084189,0.5405090231366779,59.62430164878205,94.05043200381682
187,48.062,0.5973490583924688,0.5377264685741971,59.56941647705706,94.05043200381682
188,48.12,0.5959584972938062,0.5348445370630562,59.512571120627605,94.05043200381682
189,48.176,0.5946158865778561,0.5320619825005755,59.457685948902615,94.05043200381682
190,48.234,0.5932253254791935,0.5291800509894345,59.40084059247316,94.05043200381682
191,48.292,0.591834764380531,0.5262981194782937,59.3439952360437,94.05043200381682
192,48.35,0.5904442032818683,0.5234161879671528,59.28714987961425,94.05043200381682
193,48.406,0.5891015925659182,0.5206336334046721,59.23226470788926,94.05043200381682
194,48.462,0.5877589818499682,0.5178510788421912,59.17737953616427,94.05043200381682
195,48.52,0.5863684207513056,0.5149691473310504,59.12053417973481,94.05043200381682
196,48.578,0.5849778596526429,0.5120872158199095,59.063688823305355,94.05043200381682
197,48.638,0.5835393481712678,0.5091059073601085,59.004883282171434,94.05043200381682
198,48.698,0.5821008366898928,0.5061245989003076,58.94607774103751,94.05043200381682
199,48.758,0.5806623252085176,0.5031432904405067,58.88727219990359,94.05043200381682
200,48.816,0.579271764109855,0.5002613589293659,58.830426843474136,94.05043200381682
201,48.874,0.5778812030111924,0.497379427418225,58.77358148704468,94.05043200381682
202,48.928,0.5765865426779547,0.4946962498044042,58.720656500024155,94.05043200381682
203,48.988,0.5751480311965796,0.49171494134460325,58.661850958890234,94.05043200381682
204,49.044,0.5738054204806295,0.48893238678212236,58.606965787165244,94.05043200381682
205,49.104,0.5723669089992545,0.48595107832232143,58.54816024603132,94.05043200381682
206,49.164,0.5709283975178793,0.4829697698625205,58.4893547048974,94.05043200381682
207,49.224,0.5694898860365042,0.47998846140271956,58.43054916376348,94.05043200381682
208,49.284,0.568051374555129,0.4770071529429186,58.37174362262956,94.05043200381682
209,49.346,0.5665649126910414,0.4739264675344577,68.31097789679119,94.05043200381682
210,49.408,0.5645234431871986,0.471181910425529,68.2502121709528,94.05043200381682
211,49.466,0.5626136813932813,0.46861442151717636,68.19336681452336,94.05043200381682
212,49.528,0.5605722118894385,0.4658698644082476,68.13260108868498,94.05043200381682
213,49.596,0.5583331808207077,0.4628597049984549,68.06595480873321,94.05043200381682
214,49.658,0.5562917113168651,0.4601151478895262,68.00518908289483,94.05043200381682
215,49.716,0.5543819495229476,0.45754765898117356,67.94834372646538,94.05043200381682
216,49.776,0.5524063338740676,0.4548916359725329,67.88953818533146,94.05043200381682
217,49.836,0.5504307182251875,0.4522356129638922,67.83073264419754,94.05043200381682
218,49.89,0.5486526641411954,0.4498451922561156,67.77780765717701,94.05043200381682
219,49.95,0.5466770484923154,0.44718916924747487,67.71900211604309,94.05043200381682
220,50.004,0.5448989944083233,0.44479874853969825,67.66607712902255,94.05043200381682
221,50.062,0.5429892326144059,0.44223125963134563,67.6092317725931,94.05043200381682
222,50.122,0.5410136169655259,0.4395752366227049,67.55042623145918,94.05043200381682
223,50.178,0.5391697090265711,0.4370962818146403,67.4955410597342,94.05043200381682
224,50.238,0.5371940933776911,0.43444025880599957,67.43673551860027,94.05043200381682
225,50.294,0.5353501854387364,0.4319613039979349,67.38185034687528,94.05043200381682
226,50.354,0.5333745697898562,0.4293052809892942,67.32304480574136,94.05043200381682
227,50.41,0.5315306618509015,0.42682632618122957,67.26815963401637,94.05043200381682
228,50.466,0.5296867539119468,0.42434737137316486,67.21327446229138,94.05043200381682
229,50.524,0.5277769921180294,0.42177988246481224,67.15642910586193,94.05043200381682
230,50.582,0.525867230324112,0.4192123935564596,67.09958374943248,94.05043200381682
231,50.638,0.5240233223851573,0.4167334387483949,67.04469857770749,94.05043200381682
232,50.694,0.5221794144462025,0.41425448394033026,66.9898134059825,94.05043200381682
233,50.752,0.5202696526522852,0.4116869950319776,66.93296804955305,94.05043200381682
234,50.81,0.5183598908583678,0.40911950612362497,66.8761226931236,94.05043200381682
235,50.866,0.516515982919413,0.4066405513155603,66.82123752139861,94.05043200381682
