,t,x,y,energy,sight
0,59.814,0.6936034922581353,0.4133870264916867,49.94560839280934,92.1441992756656
1,59.872,0.696523149123524,0.41332041355184446,49.891288635768774,92.1441992756656
2,59.932,0.6995492408114342,0.41324279190476954,49.83505759892217,92.1441992756656
3,59.992,0.7025761345508752,0.4131473874237477,49.77881817911432,92.1441992756656
4,60.052,0.70560515528502,0.41296478075753174,49.72253957122265,92.1441992756656
5,60.112,0.7086209972994154,0.4127832135573154,49.66634555455123,92.1441992756656
6,60.174,0.7117370828115426,0.4126616117348051,49.608301158807336,92.1441992756656
7,60.24,0.7150676815802095,0.4126067553232692,49.5464389879739,92.1441992756656
8,60.304,0.7183104807911581,0.41254970398814006,49.486367003018195,92.1441992756656
9,60.362,0.7212401556120845,0.4125556452200018,49.43198795522246,92.1441992756656
10,60.424,0.7243697542421303,0.41249331744152384,49.37386828320925,92.1441992756656
11,60.482,0.7273046593347743,0.41244846723700845,49.319453607124764,92.1441992756656
12,60.542,0.7303436711219037,0.41235276754166694,49.26313661077719,92.1441992756656
13,60.602,0.7333644237610094,0.4121872725445172,49.20691712211924,92.1441992756656
14,60.662,0.736380910565467,0.4119307867022677,49.15068426541177,92.1441992756656
15,60.724,0.7395002673416705,0.41174542927253954,49.09259889846639,92.1441992756656
16,60.788,0.742737350670898,0.4116231425928566,49.032551929350156,92.1441992756656
17,60.85,0.7458668559805471,0.4115432769440771,48.97443030519273,92.1441992756656
18,60.914,0.7490839954445874,0.41150267854527556,48.91452411488156,92.1441992756656
19,60.976,0.7521924713926238,0.4115156604738087,48.85654342628836,92.1441992756656
20,61.04,0.755413539999958,0.41158279271100084,48.79660925207063,92.1441992756656
21,61.11,0.7589442869278978,0.411581094922502,48.73101184279071,92.1441992756656
22,61.172,0.762070162584662,0.4114823829564965,48.67290999692475,92.1441992756656
23,61.23,0.764995854737893,0.41132467291146496,48.61852929203424,92.1441992756656
24,61.29,0.7680081277381396,0.41117450017299084,48.56236912269087,92.1441992756656
25,61.352,0.7711284910632152,0.4110956838881174,48.50430615884509,92.1441992756656
26,61.412,0.7741326957648946,0.41095299021670273,48.44819989274473,92.1441992756656
27,61.47,0.7770400529334848,0.41075521150628724,48.39392071245485,92.1441992756656
28,61.534,0.7802406940635821,0.4106293877552135,48.3341059285303,92.1441992756656
29,61.598,0.7834216094486963,0.4104202579939427,48.274389261493084,92.1441992756656
30,61.668,0.7868837766963817,0.41014835461933946,48.20916253672142,92.1441992756656
31,61.728,0.7898397604986622,0.4099111456111536,48.15332574538455,92.1441992756656
32,61.792,0.7929948300859341,0.4097270527647815,48.09378409807836,92.1441992756656
33,61.854,0.7960389072451381,0.40948661654978435,48.036155059033526,92.1441992756656
34,61.912,0.7988819280512859,0.4093266200401078,47.98230184510061,92.1441992756656
35,61.972,0.8018062980948508,0.4090987333133569,47.926671455993755,92.1441992756656
36,62.034,0.8048132303566483,0.408851679320451,47.86927597510878,92.1441992756656
37,62.092,0.8076339579311431,0.4086377488898615,47.81554238277893,92.1441992756656
38,62.154,0.8106634256444616,0.4084853002032417,47.75804298705858,92.1441992756656
39,62.212,0.8135004209770326,0.40829864778512237,47.70421787204942,92.1441992756656
40,62.276,0.8166212898977252,0.4081495188963058,47.64490666228509,92.1441992756656
41,62.336,0.8195517131044372,0.40803957602462654,47.58928107930568,92.1441992756656
42,62.396,0.8224774058951159,0.407959914526537,47.53369202608257,92.1441992756656
43,62.456,0.825387867293634,0.4078404598513338,47.47819171105321,92.1441992756656
44,62.516,0.8282971901834509,0.4076750166954951,47.422684282967396,92.1441992756656
45,62.574,0.8310911444957995,0.40745635323641116,47.369119206102646,92.1441992756656
46,62.636,0.8340642280375524,0.40725386398465313,47.3119611221506,92.1441992756656
47,62.692,0.8367416684731708,0.4071283242421363,47.26040617646997,92.1441992756656
48,62.752,0.8395955862021834,0.40692178386152705,47.205235653768206,92.1441992756656
49,62.812,0.8424428890434698,0.40670705294295517,47.15010348838476,92.1441992756656
50,62.87,0.8451795822439834,0.4064296254122876,47.09686979559367,92.1441992756656
51,62.928,0.8479078106318434,0.4061385373917951,47.04368094043767,92.1441992756656
52,62.992,0.8509062779718926,0.4057384167686231,46.98500578810285,92.1441992756656
53,63.05,0.8536203947285459,0.4054043019311327,46.93187522807143,92.1441992756656
54,63.11,0.8564384106188822,0.40504481504239453,46.87683609072267,92.1441992756656
55,63.17,0.8592707644107742,0.40468833593712955,46.82170833856213,92.1441992756656
56,63.23,0.8621043912714498,0.4042967565606834,46.76654310608494,92.1441992756656
57,63.288,0.8648216969413189,0.403856619163545,46.7132966034745,92.1441992756656
58,63.348,0.8676522366835286,0.4034671460994397,46.658152784786424,92.1441992756656
59,63.408,0.8704906449428413,0.40310887732299017,46.6029851558749,92.1441992756656
60,63.468,0.8733238914934986,0.40279884843866276,46.54788646125849,92.1441992756656
61,63.528,0.876146127088339,0.4024701540262298,46.49284438487413,92.1441992756656
62,63.588,0.8789719345885987,0.40207619982074877,46.43772663150004,92.1441992756656
63,63.65,0.8818966406249915,0.4016775099911256,46.380749128948864,92.1441992756656
64,63.712,0.8848464272390519,0.4013528421477327,46.32367021935741,92.1441992756656
65,63.776,0.887900509796982,0.40104931870987504,46.264712941729314,92.1441992756656
66,63.836,0.8907627014073981,0.40071758716802386,46.20941461223686,92.1441992756656
67,63.896,0.8936190471656769,0.4003952071303335,46.154160255284175,92.1441992756656
68,63.958,0.8965608289712182,0.40002378211640155,46.09709711020177,92.1441992756656
69,64.02,0.8994938855767385,0.3996835906780889,46.040113437646426,92.1441992756656
70,64.078,0.9022548391222293,0.3993904827543654,45.986714949546965,92.1441992756656
71,64.138,0.9051148639366063,0.3990195439510903,45.931399801282794,92.1441992756656
72,64.198,0.9079719564621852,0.3986808892765693,45.876128725752295,92.1441992756656
73,64.264,0.9111181956461291,0.39833257249005827,45.815326325402694,92.1441992756656
74,64.326,0.914069173381083,0.3979287604863233,45.75817779445051,92.1441992756656
75,64.39,0.917127198887289,0.39747830606580725,45.699080382686496,92.1441992756656
76,64.456,0.9202911373786549,0.3971107788842757,45.638151570648915,92.1441992756656
77,64.524,0.9235745481020461,0.39683332165051655,45.575290811597384,92.1441992756656
78,64.59,0.926772561869828,0.39652252586789566,45.51418364893725,92.1441992756656
79,64.652,0.9297879748846178,0.3962666852354257,45.45672939997676,92.1441992756656
80,64.714,0.932808240467381,0.39599563427836004,45.399235746617016,92.1441992756656
81,64.774,0.9357205630703321,0.3957372627471891,45.34366599606167,92.1441992756656
82,64.838,0.9388277866297206,0.3955016624391102,45.28440782398615,92.1441992756656
83,64.898,0.9417297200094094,0.3952812854680672,45.22892429326187,92.1441992756656
84,64.964,0.9449286435043083,0.3950508434712453,45.16785468256741,92.1441992756656
85,65.03,0.94811106162824,0.39474933214246943,45.106852551783206,92.1441992756656
86,65.094,0.951192767751771,0.39436007761345937,45.04765806155631,92.1441992756656
87,65.158,0.9542769233113948,0.39392391549981787,44.98840820184423,92.1441992756656
88,65.224,0.9574645925614652,0.39345125129612124,44.927240614696736,92.1441992756656
89,65.286,0.9604616160631168,0.3929294668816444,44.86968486733705,92.1441992756656
90,65.354,0.9637399913478264,0.39231394169272815,44.80656461771935,92.1441992756656
91,65.418,0.9668125933405227,0.3916988988649067,44.74719501374676,92.1441992756656
92,65.482,0.9698856515398558,0.3910071956607154,44.687720521087265,92.1441992756656
93,65.552,0.9732221981969674,0.3902240045533688,44.62278559807836,92.1441992756656
94,65.62,0.9764305793243697,0.38938210174254473,44.559784741005586,92.1441992756656
95,65.688,0.979641162382508,0.3884923253999236,44.496690476532166,92.1441992756656
96,65.756,0.9828688007195148,0.38762405077869305,44.43352716349827,92.1441992756656
97,65.82,0.9859146955356897,0.3868442160299112,44.37408980799362,92.1441992756656
98,65.886,0.9797239638533408,0.3859865842054357,44.31289113715723,92.1441992756656
99,65.95,0.97671106433364,0.3851689364172302,44.25359627069603,92.1441992756656
100,66.014,0.9737035137099659,0.3843718296626074,44.19436852436042,92.1441992756656
101,66.076,0.9708028326039322,0.3835994100108286,44.13707097011253,92.1441992756656
102,66.14,0.9677720671313093,0.3828805311445111,44.07782103512836,92.1441992756656
103,66.206,0.9646147859062676,0.38223102541689613,44.0166478524004,92.1441992756656
104,66.274,0.9613653966572553,0.38151136224904897,43.95357578698197,92.1441992756656
105,66.338,0.9582809097422482,0.38092545149773466,43.89416722079344,92.1441992756656
106,66.402,0.9551842841933535,0.38040371570769815,43.83475463203932,92.1441992756656
107,66.468,0.9519896246056323,0.3799619553259449,43.77357081016849,92.1441992756656
108,66.536,0.9486909301393922,0.3794645021932996,43.71044842227554,92.1441992756656
109,66.602,0.9454988307264213,0.3790191574501699,43.64927767371703,92.1441992756656
110,66.666,0.9424264520779989,0.37853905518873493,43.59006096725378,92.1441992756656
111,66.73,0.9393681425693952,0.3780069599559328,43.530878894129636,92.1441992756656
112,66.794,0.9363272978110213,0.37745288127885884,43.47178219583179,92.1441992756656
113,66.862,0.9331002317701456,0.3767983950614389,43.408936456902815,92.1441992756656
114,66.926,0.9300575785151904,0.3762392020829055,43.349822481320494,92.1441992756656
115,66.994,0.9268171002644937,0.3756622670855651,43.2869852516383,92.1441992756656
116,67.056,0.9238498114796011,0.3751238104173106,43.22959819294576,92.1441992756656
117,67.122,0.9206964251385834,0.37445181556639767,43.168419908085305,92.1441992756656
118,67.186,0.9176500901449707,0.37375561671756535,43.10910584361949,92.1441992756656
119,67.252,0.9145102492241584,0.37308936577345986,43.04801999966082,92.1441992756656
120,67.316,0.9114547433903264,0.37250893555229314,42.98880019970004,92.1441992756656
121,67.382,0.9083033236718032,0.3718994463584443,42.92771392506685,92.1441992756656
122,67.446,0.9052301734256407,0.3713727876046933,42.868444176778716,92.1441992756656
123,67.512,0.9020710117006308,0.3708133059178965,42.807367475771045,92.1441992756656
124,67.582,0.898721550778343,0.3702032188255795,42.74257760346769,92.1441992756656
125,67.654,0.8952736618333892,0.3696140744665554,42.67596207954038,92.1441992756656
126,67.728,0.8917324457418694,0.3689300107711233,42.607421510210564,92.1441992756656
127,67.798,0.8883557443040415,0.36835422506376164,42.54249806546478,92.1441992756656
128,67.862,0.8852594646881602,0.36781750709551647,42.4830715050763,92.1441992756656
129,67.928,0.8820597422619068,0.367310620183961,42.42179446944031,92.1441992756656
130,67.996,0.8787557287110248,0.3667349651126749,42.358558198436576,92.1441992756656
131,68.062,0.8755707304982371,0.36613287411907136,42.29726973821505,92.1441992756656
132,68.128,0.8724067049370433,0.36548037793299554,42.23605041817845,92.1441992756656
133,68.192,0.8697714305083653,0.36378651026500297,42.17668622905205,92.1441992756656
134,68.262,0.8668890991019985,0.36193384250313604,42.11175664719505,92.1441992756656
135,68.326,0.8642538246733205,0.3602399748351434,42.05239245806865,92.1441992756656
136,68.392,0.8615361979187461,0.35849317380252604,41.99117313803205,92.1441992756656
137,68.456,0.8589009234900681,0.3567993061345335,41.931808948905655,92.1441992756656
138,68.522,0.8561832967354939,0.3550525051019161,41.870589628869055,92.1441992756656
139,68.586,0.8535480223068157,0.3533586374339235,41.81122543974266,92.1441992756656
140,68.652,0.8508303955522415,0.3516118364013061,41.75000611970606,92.1441992756656
141,68.718,0.8481127687976672,0.34986503536868874,41.68878679966946,92.1441992756656
142,68.784,0.845395142043093,0.34811823433607136,41.62756747963286,92.1441992756656
143,68.848,0.8427598676144148,0.34642436666807874,41.56820329050646,92.1441992756656
144,68.914,0.8400422408598406,0.34467756563546137,41.50698397046986,92.1441992756656
145,68.98,0.8373246141052663,0.342930764602844,41.44576465043326,92.1441992756656
146,69.046,0.834606987350692,0.34118396357022657,41.38454533039666,92.1441992756656
147,69.114,0.8318070082702216,0.3393842291729844,41.32147087944986,92.1441992756656
148,69.182,0.8290070291897511,0.33758449477574226,41.25839642850306,92.1441992756656
149,69.25,0.8262070501092806,0.3357847603785001,41.19532197755626,92.1441992756656
150,69.318,0.8234070710288102,0.3339850259812579,41.13224752660946,92.1441992756656
151,69.386,0.8206070919483397,0.33218529158401566,41.06917307566266,92.1441992756656
152,69.45,0.8179718175196615,0.33049142391602304,41.00980888653626,92.1441992756656
153,69.518,0.815171838439191,0.32869168951878086,40.94673443558946,92.1441992756656
154,69.59,0.8122071547069283,0.3267860883922892,40.87994972282226,92.1441992756656
155,69.658,0.8094071756264578,0.32498635399504694,40.81687527187546,92.1441992756656
156,69.738,0.8061130825906103,0.3228690194100562,40.74267003546746,92.1441992756656
157,69.806,0.8033131035101398,0.32106928501281395,40.67959558452066,92.1441992756656
158,69.872,0.8005954767555655,0.3193224839801966,40.61837626448406,92.1441992756656
159,69.938,0.7978778500009913,0.31757568294757915,40.55715694444746,92.1441992756656
160,70.006,0.795077870920521,0.31577594855033697,50.49408249350066,92.1441992756656
161,70.074,0.7922825905615244,0.3139934776974661,50.43109294137467,92.1441992756656
162,70.142,0.7894517610562004,0.31228091730977015,50.36814622724802,92.1441992756656
163,70.21,0.7866639413507333,0.31052601007945224,50.30529142248211,92.1441992756656
164,70.28,0.7837850162683592,0.3087584713514431,50.240670157447106,92.1441992756656
165,70.348,0.7809581602768992,0.3070811744645515,50.1778612516688,92.1441992756656
166,70.416,0.7781280183047123,0.30540981956272684,50.11505362013498,92.1441992756656
167,70.482,0.7753365049506162,0.3038602012832746,50.054076360919915,92.1441992756656
168,70.55,0.7724220989611683,0.30235737815263064,49.99131833488938,92.1441992756656
169,70.618,0.7695136650466651,0.30082758493969763,49.928514477010324,92.1441992756656
170,70.684,0.7667200138283062,0.2993138085446286,49.867635533022714,92.1441992756656
171,70.752,0.7638739311853587,0.29768717781854137,49.804883485852024,92.1441992756656
172,70.82,0.761070092761899,0.2959716557544971,49.742074496142195,92.1441992756656
173,70.886,0.758326078294595,0.2943297654840727,49.681065634598234,92.1441992756656
174,70.954,0.7555326163412889,0.292616634452715,49.618321267672215,92.1441992756656
175,71.018,0.752920937350095,0.290989588317644,49.5593133833517,92.1441992756656
176,71.086,0.7501656428119443,0.2892537624887769,49.496699798377996,92.1441992756656
177,71.152,0.7474720622527753,0.28757999990094874,49.43586031955025,92.1441992756656
178,71.222,0.7445980721900758,0.2858066223409529,49.37124636461613,92.1441992756656
179,71.288,0.7419180169256497,0.28409148196286554,49.31033884229088,92.1441992756656
180,71.356,0.739154981895835,0.28235478634851724,49.247680364119965,92.1441992756656
181,71.422,0.7364563583660504,0.2806811338991079,49.18681383612848,92.1441992756656
182,71.49,0.733629624926095,0.2790402302536355,49.1241235024477,92.1441992756656
183,71.56,0.7307078695711371,0.2773524725381079,49.05952803896607,92.1441992756656
184,71.63,0.7277797074994031,0.2756944694847153,48.99499152462022,92.1441992756656
185,71.7,0.724806241356687,0.2740838643932503,48.93034834497231,92.1441992756656
186,71.77,0.7230136673657951,0.27121642160398496,48.8657051653244,92.1441992756656
187,71.838,0.7212723097746429,0.2684309057515558,48.80290893366643,92.1441992756656
188,71.902,0.7196333849829701,0.2658092437727989,48.74380659798834,92.1441992756656
189,71.97,0.7178920273918179,0.26302372792036977,48.68101036633037,92.1441992756656
190,72.04,0.7160994534009258,0.26015628513110445,48.61636718668246,92.1441992756656
191,72.11,0.7143068794100339,0.2572888423418392,48.55172400703455,92.1441992756656
192,72.178,0.7125655218188817,0.25450332648941,48.48892777537658,92.1441992756656
193,72.248,0.7107729478279896,0.2516358837001447,48.42428459572867,92.1441992756656
194,72.318,0.7089803738370977,0.2487684409108794,48.35964141608076,92.1441992756656
195,72.386,0.7072390162459454,0.24598292505845026,48.29684518442279,92.1441992756656
196,72.458,0.7053952258553136,0.24303355533234877,48.230355056784944,92.1441992756656
197,72.526,0.7036538682641613,0.24024803947991963,48.167558825126974,92.1441992756656
198,72.594,0.7019125106730091,0.23746252362749046,48.104762593469005,92.1441992756656
199,72.66,0.7002223694815967,0.23475893471189746,48.043813309800974,92.1441992756656
200,72.73,0.6984297954907046,0.23189149192263217,47.979170130153065,92.1441992756656
201,72.796,0.6967396542992922,0.22918790300703917,47.918220846485035,92.1441992756656
202,72.862,0.6950495131078797,0.22648431409144618,47.857271562817004,92.1441992756656
203,72.928,0.6933593719164672,0.22378072517585318,47.796322279148974,92.1441992756656
204,72.994,0.6916692307250547,0.2210771362602602,47.735372995480944,92.1441992756656
205,73.062,0.6899278731339025,0.21829162040783104,47.672576763822974,92.1441992756656
206,73.13,0.6881865155427502,0.21550610455540187,47.609780532165004,92.1441992756656
207,73.198,0.686445157951598,0.2127205887029727,47.546984300507035,92.1441992756656
208,73.264,0.6847550167601855,0.2100169997873797,47.486035016839004,92.1441992756656
209,73.33,0.683064875568773,0.20731341087178673,47.425085733170974,92.1441992756656
210,73.398,0.6813235179776208,0.20452789501935756,47.362289501513004,92.1441992756656
211,73.466,0.6795821603864686,0.2017423791669284,47.299493269855034,92.1441992756656
212,73.536,0.6777895863955765,0.19887493637766307,47.234850090207125,92.1441992756656
213,73.606,0.6759970124046846,0.19600749358839775,47.170206910559216,92.1441992756656
214,73.678,0.6741532220140527,0.19305812386229632,47.10371678292137,92.1441992756656
215,73.748,0.6723606480231608,0.190190681073031,47.03907360327346,92.1441992756656
216,73.818,0.6705680740322688,0.18732323828376568,46.97443042362555,92.1441992756656
217,73.886,0.6688267164411166,0.18453772243133654,46.91163419196758,92.1441992756656
218,73.954,0.6670853588499643,0.1817522065789074,46.84883796030961,92.1441992756656
219,74.02,0.6653952176585518,0.17904861766331442,46.78788867664158,92.1441992756656
220,74.086,0.6637050764671393,0.17634502874772143,46.72693939297355,92.1441992756656
221,74.152,0.6620149352757269,0.17364143983212843,56.66599010930552,92.1441992756656
222,74.22,0.6592172134004156,0.17191976125213668,56.60319387764755,92.1441992756656
223,74.29,0.6563372055875951,0.17014744506685106,56.53855069799964,92.1441992756656
224,74.358,0.6535394837122839,0.1684257664868593,56.47575446634167,92.1441992756656
225,74.426,0.6513991990426005,0.16593365766958912,56.4129582346837,92.1441992756656
226,74.49,0.6493848134711337,0.16358814348862893,56.35385589900561,92.1441992756656
227,74.56,0.647181579252342,0.16102273735320374,56.2892127193577,92.1441992756656
228,74.626,0.6451042441317669,0.15860392585408856,56.22826343568967,92.1441992756656
229,74.694,0.6429639594620834,0.15611181703681837,56.1654672040317,92.1441992756656
230,74.76,0.6408866243415083,0.15369300553770318,56.10451792036367,92.1441992756656
231,74.828,0.6387463396718249,0.15120089672043296,56.0417216887057,92.1441992756656
232,74.892,0.6367319541003582,0.14885538253947278,55.98261935302761,92.1441992756656
233,74.958,0.634654618979783,0.14643657104035762,55.92167006935958,92.1441992756656
234,75.022,0.6326402334083163,0.14409105685939744,55.86256773368149,92.1441992756656
235,75.09,0.6304999487386329,0.14159894804212722,55.79977150202352,92.1441992756656
236,75.156,0.6284226136180578,0.13918013654301203,55.73882221835549,92.1441992756656
237,75.224,0.6262823289483743,0.13668802772574185,55.67602598669752,92.1441992756656
