,t,x,y,energy
0,80.81,0.9657181655917157,0.7260426689070558,49.758855681866905
1,81.23,0.9403922815225837,0.7409013966522462,49.51774318749235
2,81.53,0.9220024084582131,0.717591311895316,49.34575740326092
3,81.84,0.9027119229571956,0.7074144631806701,49.16850446083872
4,82.13,0.8842875717030778,0.6982054627137534,49.00231404446808
5,82.53,0.8587107350017485,0.6858602430949754,48.77367891099979
6,82.96,0.8307430207135343,0.673208183679058,48.528066294343304
7,83.32,0.8076242294045276,0.6620873084899809,48.32185709000387
8,83.65,0.7861448998587283,0.652189919579932,48.13267461756278
9,83.97,0.7654655420690429,0.6422616119567991,47.94870612804723
10,84.28,0.7455085030802374,0.6326406217303097,47.770783902917366
11,84.58,0.7261845571298321,0.6232643128355487,47.59833022475206
12,84.92,0.7039384028472108,0.6129973016664103,47.40270724748486
13,85.24,0.6832364666193095,0.6029486502469148,47.21823076471037
14,85.54,0.6639722333530316,0.5932412997047353,47.0448500981231
15,85.84,0.6445849111111372,0.5835701999422024,46.87110718271872
16,86.15,0.6241749740217204,0.5740156096928731,46.691575852760494
17,86.45,0.6040601503179702,0.5651333692713012,46.51755309277109
18,86.75,0.584040313375683,0.5559864832412217,46.34305118830758
19,87.05,0.5635754098312776,0.5472526925716579,46.16805006251531
20,87.35,0.5428775313124412,0.538928507337462,45.99333791485402
21,87.65,0.5219410735454898,0.5309198676705597,45.81854702077835
22,87.95,0.5010127930199025,0.5228160205478704,45.64351285648541
23,88.25,0.47970729884320706,0.5151586721301348,45.46813070592623
24,88.55,0.4586158947509669,0.5071948197806802,45.29280594799903
25,88.86,0.43702518043109,0.49851345490883947,45.11117065604367
26,89.15,0.4168920819618343,0.4903500367582435,44.94139922791209
27,89.45,0.3956957781009774,0.4822739453385146,44.7653009594701
28,89.75,0.37427572281962684,0.474471826225298,44.58902094819601
29,90.05,0.3528617189524007,0.4665928991387722,44.41255141244371
30,90.34,0.33200526324468627,0.4591225964427174,44.24169620887701
31,90.65,0.3094412680273562,0.45144140617947837,44.05870881083569
32,90.96,0.2866030613902285,0.44404594388870045,43.875258242126925
33,91.28,0.2627847413390911,0.43665221751008143,43.685412720037135
34,91.59,0.23976967165469507,0.4293790151759632,43.50148827251215
35,91.9,0.21690493738405522,0.421883678457559,43.317666229579665
36,92.2,0.1949712629571506,0.41428397834162356,43.13971281546305
37,92.53,0.1705513656254336,0.4063565768189231,42.9438105485852
38,92.85,0.14661479270118663,0.3989110665985048,42.75331378430778
39,93.17,0.12264435105598784,0.39134121782150083,42.56236018576087
40,93.49,0.09899918498810309,0.38340575627486884,42.37190681398016
41,93.82,0.0742756416814814,0.37569725012193744,42.17520992515556
42,94.14,0.04992695793096426,0.3687312304075436,41.98400996445912
43,94.47,0.02501559720153437,0.3612137075162508,41.78694138250764
44,94.78,0.0012659161586191698,0.35464483798566715,41.60139221711868
45,95.17,0.0704218187881556,0.3466289901699332,41.36785783005011
46,95.5,0.09565518933219115,0.33963276477858106,41.17054846860752
47,95.82,0.12029801571393141,0.3331152664334653,40.979011973808404
48,96.15,0.14589501506012773,0.326555936934114,40.780994899356834
49,96.49,0.17213511076872023,0.3194047156016681,40.5767410291519
50,96.82,0.19774663940076123,0.31288179250969816,40.37873306644138
51,97.19,0.2265018375226063,0.30545529877141925,40.156312083429256
52,97.53,0.2529682412516303,0.2989766665863289,39.952434359602485
53,97.87,0.2790733914666796,0.2919717304477655,39.74910739515511
54,98.2,0.3045297504003646,0.2851973184342087,39.55127515625751
55,98.53,0.32961829230710726,0.27787686266099526,39.3538798042989
56,98.87,0.3553744438447715,0.269932949717528,39.14996081746525
57,99.21,0.38119443608549,0.2619854945930097,38.94574976771306
58,99.55,0.4067987024769184,0.25371226665676205,38.741684923002104
59,99.88,0.4318586052967647,0.2460825398498263,38.543686205808065
60,100.22,0.45759101726672463,0.2379362584084777,38.33937426938937
61,100.57,0.48426086546844915,0.22992341118339504,38.129159584419085
62,100.93,0.5113442520581339,0.2212940458915013,37.913538712834985
63,101.26,0.5360833961547193,0.2134101262515892,37.716337792020994
64,101.61,0.5621868945896633,0.20503806957100768,37.507755438992774
65,101.99,0.590779935568343,0.19631419083738133,37.281079134887854
66,102.44,0.6246140323437372,0.1860169869057626,37.01284385884938
67,102.85,0.6553265205802019,0.17669455506116624,36.7691023886382
68,103.2,0.6814344900681983,0.16834732437846484,36.56056268814628
69,103.55,0.7071765852127146,0.15951500286245884,36.35237482130508
70,103.9,0.7329944501832216,0.15062793957464302,36.14371037373198
71,104.25,0.7584173000934409,0.14129824342192837,35.93554581686098
72,104.6,0.7839456387521455,0.13231068636814272,35.72787113371585
73,104.93,0.8083236652151652,0.12422328526877431,35.53174249098254
74,105.28,0.8343109817272082,0.11573687473059584,35.32338220641011
75,105.65,0.8619574081940732,0.10730585488342612,35.103686979168344
76,106.0,0.8882831895844148,0.09953865936355277,34.8955873848108
77,106.34,0.9140671332016809,0.09236956694970003,34.6933495611701
78,106.68,0.9397011368020382,0.08483729568678162,34.490956271872385
79,107.02,0.9656689137239614,0.0778197281314394,34.288222590303434
80,107.35,0.9911474727678962,0.07148366229860531,34.09120018555305
81,107.7,1.0181076331769847,0.06437012507253988,33.88170698309943
82,108.15,1.052888799531446,0.05530439725892531,33.611992977694364
83,108.69,1.0948523514868131,0.04501298563937647,33.28850899728513
84,109.08,1.1251802111146771,0.03737918272900094,33.05438187971
85,109.41,1.150828963524165,0.030816076590163183,32.856121905524446
86,109.74,1.1627154483823559,0.04908202783138545,42.65786193133889
87,110.08,1.1754371309476659,0.06781395451354408,42.453077959000915
88,110.42,1.1877408619197163,0.08662470202273538,42.24873986475094
89,110.74,1.1994749363159107,0.10428162061240043,42.05636524834336
90,111.08,1.2112153082559198,0.1232108010266049,41.85250906423639
91,111.4,1.2225047071544652,0.1409559126909921,41.66056284209454
92,111.74,1.235003028181187,0.1596891741634696,41.45625443854461
93,112.07,1.247748073979074,0.17764665475628877,41.25788089046868
94,112.41,1.2612243264297947,0.19597926325670426,41.05365841116008
95,112.74,1.2747105801252565,0.21359873032838603,40.85545625970581
96,113.08,1.2882171330822723,0.23183522033888648,40.651701595459826
97,113.42,1.3009828674574004,0.25034672176452744,40.44807612521954
98,113.77,1.3133660126206705,0.26962476566102367,40.23881566275425
99,114.12,1.2985395035302767,0.28869332244973045,40.02923238959067
100,114.46,1.2865564365728521,0.3075705881637763,39.825180776886384
101,114.79,1.2753096275384126,0.3259702017862673,39.627460830751986
102,115.13,1.264030940419625,0.34497823452396187,39.424063210821
103,115.46,1.253670475591304,0.36366971990051994,39.2263348644912
104,115.83,1.2428931659069986,0.38479014565926156,39.00516156796605
105,116.19,1.2318674399854215,0.4052299029588114,38.78967129898852
106,116.53,1.2217612607436712,0.4245317114664579,38.586712688030815
107,116.87,1.212026040849068,0.44401370499588166,38.38331530147692
108,117.21,1.2026727145285465,0.4636397813991596,38.17968213801372
109,117.55,1.1931411125618252,0.4831917877791578,37.97620384964022
110,117.9,1.1830349253150794,0.5032545925261315,37.766634321014024
111,118.24,1.1731073558936183,0.522784779536517,37.56262195964406
112,118.58,1.1634237363537496,0.542394510312741,37.3585449667794
113,118.93,1.1537112289597522,0.5627130455918798,37.148092294539914
114,119.28,1.1444976698310327,0.5830685555425263,36.938205302795055
115,119.64,1.1358126432242746,0.6041579258086973,36.7225662334831
116,119.98,1.1284379049312727,0.6242703742419623,36.51882408735086
117,120.32,1.1208900004350828,0.6443478181831161,36.31507477286325
118,120.67,1.113105918585484,0.6650210959659308,36.10528157380591
119,121.01,1.105073387090463,0.6850728485743034,35.90103978191639
120,121.37,1.0957217227633862,0.7060945739742202,35.684834280929785
121,121.73,1.0858588252965822,0.7270577713325562,35.46818642498902
122,122.07,1.0759568819868177,0.746744433445335,35.26328131104706
123,122.42,1.0665281294458382,0.7015608364944044,35.05251929593961
124,122.76,1.0573066076462974,0.681783233102584,34.84818270987732
125,123.11,1.0481340330612567,0.6612782831026128,34.63745242240629
126,123.47,1.0383361376420963,0.6401958464536337,34.42018769529051
127,123.83,1.0286555508866015,0.6190008350856264,34.20242590221859
128,124.19,1.0184000857413669,0.5979905290495335,33.98485689573367
129,124.55,1.0076018511505151,0.5771336375798208,33.76728719972362
130,124.89,0.9975546091703508,0.5573990330804834,33.56184774424685
131,125.24,0.9865852127603901,0.5373495561985984,33.350838652279414
132,125.58,0.9758177927448056,0.5179271795127688,33.14597513542091
133,126.03,0.9625875176286323,0.49195395609953063,32.87505918704755
134,126.42,0.9512582850700674,0.4693666452411585,32.64003658649256
135,126.77,0.9404489263838662,0.44932987311389916,32.42939266504339
136,127.12,0.9303482844922931,0.42904714374011343,32.21851487336201
137,127.47,0.9208592238196303,0.4085066537529838,42.00707901726575
138,127.81,0.9119237980315573,0.38854172913043344,41.80205345843292
139,128.16,0.9401227823528425,0.3837781793630254,41.59099773610501
140,128.5,0.9675160814078053,0.3791507310175434,51.38597217727218
141,128.84,0.9949785814429549,0.37486460103331626,51.18108451848525
142,129.19,1.0231857883881428,0.3706515393858778,50.97072142228167
143,129.53,1.0506015947267082,0.3667803625598422,50.76656987809552
144,129.88,1.0788689869446284,0.3626361047096701,50.55600859891177
145,130.21,1.105495406284415,0.35889939147822714,50.35780582719662
146,130.56,1.1338136678226496,0.3555683658004364,50.14790681975798
147,130.9,1.1613878901819823,0.3526234831934304,49.943971643151514
148,131.25,1.189911840610325,0.3499302225061456,49.73366619926402
149,131.61,1.2193378184051404,0.34756488030342425,49.51723686443698
150,131.97,1.248731665961977,0.34468508477339366,49.30057196040385
151,132.33,1.2782413511418298,0.34222482457113373,49.08367727656011
152,132.68,1.3069750557861812,0.33994419714779034,48.87267557748164
153,133.04,1.3292276731713437,0.32516934912979767,58.655645258429495
154,133.4,1.2735460072125653,0.3104450807028821,58.43892393676796
155,133.8,1.249452212173259,0.29348108018910296,58.19765785399712
156,134.17,1.2265384364783343,0.2782786034131524,57.97437121892528
157,134.54,1.2036751857146832,0.2630734265567729,57.75125467747988
158,134.89,1.181916185513635,0.24880034823390482,57.540190540912015
159,135.25,1.160084408287541,0.23369596717264432,57.32324488900487
160,135.61,1.138559816739046,0.21837851280140694,57.10644433159124
161,135.96,1.1173907895391413,0.20355777600130462,56.89513136159912
162,136.33,1.0948160366505255,0.187945183029315,56.671293044246646
163,136.72,1.070736744940088,0.17175107413378515,56.43547566056036
164,137.09,1.0480577177702133,0.1562831414660418,56.21189347303516
165,137.45,1.0264439378115389,0.1408036900403889,55.99406800862411
166,137.81,1.0049626767976172,0.12527762086524433,55.7764950340666
167,138.17,0.9837548053372516,0.10955777902488488,55.55899504675614
168,138.53,0.9631894921400623,0.09340961219353808,55.3417024926897
169,138.88,0.94266223720553,0.07817219590682269,55.130762427957805
170,139.25,0.9215421474958574,0.06154709978822206,54.907357206873456
171,139.62,0.9008273969404118,0.04471289220781953,54.684306618448616
172,140.0,0.8795422540486544,0.02745777073562472,54.45535344175166
173,140.37,0.8588582309851052,0.010587030885340345,54.232230821969125
174,140.74,0.8379947456007739,0.03735918855321086,54.009340718855384
175,141.13,0.815914158690344,0.05492340047377735,53.774269675925666
176,141.52,0.7940959245667738,0.07269857750086448,53.53906916686683
177,141.9,0.7724445284081753,0.08971949928059526,53.3100046453983
178,142.36,0.7468745127791061,0.11079380000234244,53.03260795104986
179,142.88,0.7171532589107719,0.13418864408970066,52.718365743135806
180,143.29,0.6934490049563447,0.1524346608732055,52.47061935857002
181,143.67,0.6709969860898773,0.16887677800820464,52.24148773256941
182,144.06,0.6486129888830242,0.18625152906963577,52.00628827636087
183,144.45,0.626479196865518,0.20387899085183694,51.77074748129862
184,144.82,0.605648972408835,0.22060850262140647,51.54781085070528
185,145.21,0.6249384065071919,0.23991709052217147,61.312823591431226
186,145.63,0.64604795718391,0.2604708081829076,61.060007653747626
187,146.11,0.6696399486177211,0.28416066284561675,60.77160265679314
188,146.97,0.7133665419015192,0.3256007139269398,60.255707675216726
189,147.58,0.7455783204117784,0.35429311367057403,59.88962642098308
190,147.94,0.7638696797162076,0.3715698576656855,59.67406088561486
191,148.37,0.7854172959956922,0.39233540102399705,59.41681971786056
192,148.76,0.8046791150017469,0.4112192641355742,59.18407967689807
193,149.15,0.8244119490090127,0.4297479400996836,58.95173813611009
194,149.51,0.8420030979899629,0.44723233357733216,58.737179208574354
195,149.86,0.8597047959225854,0.46395146453311176,58.52823453110858
196,150.2,0.8769911484158863,0.48012895978496417,58.325308979016604
197,150.55,0.8944264880147104,0.4971076910099013,58.11584315711931
198,150.89,0.9106538182115825,0.51391098867363,57.91281340164244
199,151.26,0.9289538263736311,0.5318866618610281,57.691626856331645
200,151.66,0.948810397223861,0.5513247255569069,57.45226911224715
201,152.04,0.9683567480990576,0.5694940899751565,57.224347175363924
202,152.5,0.9915634264500088,0.5917548255513293,56.948464844226194
203,153.0,1.0170208148063042,0.6159393388247032,56.64796265645885
204,153.55,1.04439285953126,0.6429104321808385,56.3174041267129
205,154.23,1.0784933468188755,0.6759855271067409,55.90933378580534
206,154.94,1.1140320319799106,0.7106882351028723,55.48260065162452
207,155.32,1.1329560341987495,0.7294340001342997,55.25361194261562
208,155.69,1.15151976601444,0.7476827802580482,55.03026794543576
209,156.06,1.17030114555072,0.7028423627028342,54.806409096760014
210,156.44,1.1893604166734733,0.6839966400061125,54.576518365549894
211,156.83,1.2082183632782626,0.6643350180624792,54.34093554934827
212,157.23,1.2279124356681086,0.644295422105173,54.09896867105725
213,157.63,1.2468534733552195,0.6239534789955511,53.85753689221069
214,158.0,1.2637801809554488,0.6048218234049656,53.63414804649853
215,158.38,1.2814274981264626,0.5852737524545581,53.40455353547417
216,158.75,1.2989646600928968,0.5663712008205236,53.18073043666781
217,159.12,1.3158256294997108,0.5470826032431948,52.956676856503755
218,159.47,1.2925538509624046,0.5291879262173372,52.74479349725125
219,159.85,1.2749743664879014,0.5095613414155016,52.51496444195086
220,160.21,1.2581716695666976,0.49095960294283686,52.29679001016228
221,160.57,1.2410894666206334,0.4725346729068328,52.07878931925225
222,160.94,1.223874078904519,0.4534036522320526,51.854633184777136
223,161.38,1.202962880417245,0.4309428528147456,51.588404969163356
224,161.8,1.1836105516137119,0.40920748568128085,51.33436300781055
225,162.18,1.1665519206777881,0.389240160047543,51.10408218384271
226,162.57,1.149891097963162,0.3684395984809611,50.868210691248514
227,162.95,1.1333019064141565,0.34834647649718475,50.638449672522334
228,163.35,1.1166219714215027,0.32689931789953797,50.39690434631816
229,163.75,1.1004792615744445,0.30529919470431355,50.155789285481546
230,164.15,1.0842185430719273,0.28366570286437276,49.91421049927519
231,164.55,1.0679088545470667,0.26211866379787624,49.6729975527939
232,164.93,1.0520283963322627,0.24190350434784813,49.44432710888668
233,165.3,1.0360689022986602,0.22249724042070423,49.22196049459757
234,165.68,1.0195596978428454,0.20269738968926249,48.993995913506225
235,166.07,1.0018700779577052,0.18262258562360079,48.75942050398236
236,166.45,0.9850374280650359,0.16292062267248858,48.531154842466954
237,166.83,0.9675976796122426,0.1436051227635715,48.30335144262392
238,167.27,0.9475108016642079,0.12116341417111738,48.03945952235356
239,167.81,0.9220783068813764,0.09389439087953189,47.71491616065874
240,168.22,0.9021854339972014,0.07350101122146599,47.46849347550078
241,168.6,0.8829310502574345,0.05496565657075471,47.23960677554662
242,168.99,0.8637775717311725,0.035633806878801196,47.00489046365355
243,169.37,0.8452500371640947,0.01661925893418466,46.77565736715611
244,169.76,0.826765909246088,-0.00308819550933343,46.540875643788205
245,170.15,0.8075856631761579,0.053777395703534216,46.305530934183366
246,170.53,0.78940412905431,0.07296522225929407,46.07636917020448
247,170.91,0.7706259070918393,0.09191884454278185,45.84673613478332
248,171.31,0.7514722508816638,0.1120958196326383,45.60557908564952
249,171.69,0.7331298275241983,0.13118333206390925,45.37648994937111
250,172.08,0.7151416535048707,0.15117318000593954,45.14157077378402
251,172.46,0.6970333288811036,0.17041847079983988,44.912311965756075
252,172.85,0.679067063779625,0.1905655781949856,44.67661601471881
253,173.24,0.6614452339348168,0.21076437100791892,44.44155637086557
254,173.63,0.644610166706456,0.2314364451577216,44.20595489034696
255,174.04,0.6263717407243854,0.25301939236442117,43.95771277129713
256,174.43,0.6082169096522365,0.27308437557901893,43.721947005307236
257,174.82,0.5893016579657405,0.2926962774376539,43.48646134157039
258,175.2,0.5714238810936098,0.31210813075648347,43.25696198810981
259,175.63,0.5515441244683698,0.3342030624700324,42.99753236051597
260,176.05,0.5316124927951892,0.35552944998703334,42.74408040768482
261,176.45,0.5125667279639378,0.3757556343194305,42.502966008669674
262,177.31,0.4733668467037341,0.4202867082394189,41.98378176689822
263,177.86,0.4473869384166464,0.4481641637900595,41.65247548867377
264,178.29,0.4264885604704224,0.46976501062687304,41.39283285184789
265,178.68,0.40727968927206404,0.48922436483401793,41.15730272248429
266,179.07,0.3878224862440466,0.5084666079088751,40.92216978749442
267,179.44,0.3695857679522841,0.526918910586974,40.69872820123215
268,179.83,0.3508729281145326,0.546598726143316,40.463456295528495
269,180.21,0.3331479256581334,0.566109268924976,40.233850954292805
270,180.59,0.31571474266183036,0.5857881920322889,40.00413348410556
271,180.98,0.3427422525439006,0.5990953458240907,39.76837081733444
272,181.36,0.36907674935207163,0.612061290544308,49.538653347147196
273,181.75,0.39658222260217973,0.6248284389917179,49.302814003443984
274,182.14,0.42399033159880545,0.6378585463660198,49.06647737134883
275,182.52,0.45098802652269215,0.6500391470516257,48.83674001591578
276,182.9,0.47819445812517497,0.6621319597916405,48.60643043838209
277,183.3,0.506606927189956,0.6753390591310716,48.363341334467506
278,183.78,0.5401498758858833,0.6918037239665689,48.07175065008944
279,184.18,0.5675986194032936,0.7060099285338011,47.82903128281863
280,184.58,0.5947524460497964,0.7205638257573704,47.58619149405518
281,184.96,0.6208804088803307,0.7339369590727423,47.355848209918186
282,185.35,0.6476146118908164,0.7475751248419454,47.12007903182872
283,185.74,0.6741948414011527,0.7072970796756753,46.884049304582724
284,186.13,0.7004694519915377,0.6930478072353687,46.64784021628641
285,186.52,0.726894789047757,0.6789407411206756,46.411573812514206
286,186.9,0.7528737559019787,0.665541588590232,46.181726425349645
287,187.28,0.7790896373371766,0.6522866033846283,45.951458348627575
288,187.68,0.8067416406948246,0.6385491902586382,45.70961130686833
289,188.07,0.8339501363141816,0.6252883798499941,45.47328349689701
290,188.5,0.8635566319552509,0.6101217964238212,45.21234869769505
291,188.91,0.8922961564488602,0.596172418316133,44.96332523308118
292,189.31,0.9199935449519204,0.5821681620680133,44.72034817444077
293,189.72,0.9487682191796678,0.5681138140109068,44.47081738661491
294,190.12,0.9771927661084189,0.5546373391822204,44.22676441613708
295,190.52,1.0055929599605555,0.5411355385435932,43.98272352159694
296,190.92,1.0345782542011834,0.5281521489558485,43.738029653909514
297,191.33,1.063897906118731,0.5143780328346593,43.487259704138374
298,191.73,1.0926044445278067,0.5010200576442903,43.242462112753785
