,t,x,y,energy
0,90.65,0.35358936574576183,0.740478630958709,49.67167550518823
1,90.96,0.3706108622892087,0.7180478941714701,49.343351010376466
2,91.28,0.3881814393663151,0.7074946297897193,49.00443540282883
3,91.59,0.405202935909762,0.6972711549198984,48.676110908017066
4,91.9,0.42222443245320884,0.6870476800500775,48.3477864132053
5,92.2,0.4386968484629961,0.6771539946921863,48.03005303112939
6,92.53,0.4568165060737621,0.6662709407985059,57.6805463108459
7,92.85,0.4570269609545335,0.6493888678106636,57.341630703298264
8,93.17,0.47842204497295326,0.6546372142989856,57.00271509575063
9,93.49,0.49981712899137304,0.6598855607873075,56.663799488203
10,93.82,0.5218808093853684,0.6652979181033896,56.314292767919504
11,94.14,0.5432758934037882,0.6705462645917115,60.97537716037187
12,94.47,0.565381069875542,0.6652300025202452,60.62587044008838
13,94.78,0.586146538682341,0.6602359381500799,60.29754594527661
14,95.17,0.612270838148959,0.6539530829747107,64.88449254857794
15,95.5,0.6250452177216117,0.6684902954805324,69.53498582829444
16,95.82,0.6395649296508882,0.6555890588038646,69.1960702207468
17,96.15,0.6545383825779545,0.6422846584810512,68.8465635004633
18,96.49,0.6699655765028107,0.6285770945120918,68.48646566744395
19,96.82,0.684939029429877,0.6152726941892783,68.13695894716045
20,97.19,0.701727446348103,0.6003556392818813,67.7450877759335
21,97.53,0.7171546402729592,0.5866480753129218,67.38498994291415
22,97.87,0.7325818341978153,0.5729405113439625,72.0248921098948
23,98.2,0.7528540591278079,0.5814231546072554,71.6753853896113
24,98.53,0.7731262840578005,0.5899057978705483,71.32587866932779
25,98.87,0.7940128188341564,0.5986454909296985,70.96578083630844
26,99.21,0.8148993536105124,0.6073851839888488,70.60568300328909
27,99.55,0.8357858883868683,0.616124877047999,75.24558517026973
28,99.88,0.840879582169488,0.5991387792893417,74.89607844998623
29,100.22,0.8461276303091566,0.5816379512955734,74.53598061696688
30,100.57,0.8515300328058744,0.5636223930666943,74.16529167121166
31,100.93,0.8570867896596412,0.5450921046027044,73.78401161272058
32,101.26,0.8621804834422608,0.528106006844047,78.43450489243708
33,101.61,0.837740282498691,0.5258737407877101,78.06381594668186
34,101.99,0.8112052071885295,0.52345013764083,77.66135366271904
35,102.44,0.7797820916896541,0.5205800812826827,77.18475358960518
36,102.85,0.7511521420129008,0.5179651410452595,76.75051796743477
37,103.2,0.726711941069331,0.5157328749889227,76.37982902167956
38,103.55,0.7022717401257612,0.5135006089325859,76.00914007592434
39,103.9,0.700462689620124,0.49508494811459675,75.63845113016912
40,104.25,0.6986536391144867,0.4766692872966076,75.2677621844139
41,104.6,0.6968445886088495,0.4582536264786186,78.230406571992
42,104.93,0.7055541407269356,0.4421150758982776,77.8808998517085
43,105.28,0.714791544488542,0.42499843134337045,77.51021090595329
44,105.65,0.724556799893669,0.40690369281389716,82.11833973472633
45,106.0,0.7015784989261185,0.4002722424201247,81.74765078897111
46,106.34,0.7061543339881162,0.3826656077112741,81.38755295595176
47,106.68,0.6987373302265417,0.39971926250242706,81.02745512293241
48,107.02,0.6913203264649671,0.41677291729358,80.66735728991306
49,107.35,0.6841214698728508,0.4333249940026403,80.31785056962956
50,107.7,0.7014767207732884,0.44642269509635496,79.94716162387434
51,108.15,0.7237906147881368,0.4632625965025595,79.47056155076048
52,108.69,0.7505672876059549,0.4834704781900051,83.89864146302385
53,109.08,0.7700361745707391,0.4980202620838896,83.48534938297237
54,109.41,0.7865922316315245,0.5102524517433238,83.135716385267
55,109.74,0.7812627384739148,0.4932868262490769,82.78608338756163
56,110.08,0.7757717455236504,0.47580709089136797,82.42585545053186
57,110.42,0.7706630377417671,0.4582924991937619,82.06581646814993
58,110.74,0.7652416647805066,0.44185328423046116,81.726569465004
59,111.08,0.7598573635310467,0.42435637506328805,81.36635079221273
60,111.4,0.7542007994701106,0.40796293748311596,81.02711086353888
61,111.74,0.7486778405911443,0.3904558214152963,80.66667712175813
62,112.07,0.7437526797680615,0.37337913725783284,80.31677852711182
63,112.41,0.7386340699738745,0.3557894806708355,79.95626005701452
64,112.74,0.7335083932644444,0.3386713563442948,79.60589526778344
65,113.08,0.7284018610327779,0.3209958475995194,79.24485221140611
66,113.42,0.7234560944540891,0.3033087561592348,78.88389755784846
67,113.77,0.7190025262518692,0.2850001419702087,78.5122791244377
68,114.12,0.7150241006871949,0.2666197435381345,78.14059535455117
69,114.46,0.7117588028568844,0.2487114109451407,77.77962059603733
70,114.79,0.7079195814025978,0.23140785989569287,77.4292748832419
71,115.13,0.7042568735394766,0.21349025224553486,77.06796759108435
72,115.46,0.692025124603202,0.1984774700790375,76.71728698399026
73,115.83,0.6783107394322273,0.1816449567408435,76.32409963664234
74,116.19,0.6649670133199277,0.1652673761955736,80.94153897435788
75,116.53,0.6522168320092364,0.14984315182722102,80.58009691400214
76,116.87,0.6389431846754354,0.13459190454846032,80.2182400685637
77,117.21,0.6257856593809658,0.11930833357414299,79.85651321724286
78,117.55,0.6127843752388327,0.10387479876832487,79.49438119492251
79,117.9,0.5987207386305583,0.08823564997080782,79.12114452469646
80,118.24,0.5847855325212145,0.07325338737860485,78.75893806929359
81,118.58,0.5713720680851899,0.05805556690230951,78.39699831083
82,118.93,0.5467411632714464,0.05477710532763884,78.02441326535276
83,119.28,0.5219732754869837,0.051977716435617285,77.65167573649713
84,119.64,0.4963250873301863,0.049536996286145864,77.2678535825836
85,119.98,0.472076398068303,0.0476276908854698,76.90552547972212
86,120.32,0.4478846404804846,0.04521300316492539,76.5430864822859
87,120.67,0.42313392911601755,0.04220147199576581,76.17022053150697
88,121.01,0.3990699895754562,0.03948994260634922,75.80812255815464
89,121.37,0.37358857504924836,0.03659449898329149,75.42469214424771
90,121.73,0.34807648665075,0.03393160175736594,75.04133007750968
91,122.07,0.32418162826505126,0.030930897344476915,74.67974335672118
92,122.42,0.29956485029970714,0.027615281626771793,74.30718327380305
93,122.76,0.27554001320434085,0.02441827038885951,73.94476823466489
94,123.11,0.25070177303379687,0.02167393273633632,73.57174862818177
95,123.47,0.2250416989736337,0.023850376221988507,73.18807131865626
96,123.83,0.19938162491347058,0.026026819707640692,72.80439400913075
97,124.19,0.17372155085330745,0.028203263193292877,72.42071669960524
98,124.55,0.14806147679314433,0.030379706678945056,72.03703939007973
99,124.89,0.12382696240299025,0.03243523663761656,71.67467748663897
100,125.24,0.09887966817783166,0.03455122335977841,71.30165788015584
101,125.58,0.07464515378767758,0.03660675331844991,80.93929597671509
102,126.03,0.042733156761503764,0.039492238227572064,80.46035443358387
103,126.42,0.014966661546519567,0.04167970256445938,80.04497452687046
104,126.77,0.051557278953089015,0.043572131292704444,79.67253720241402
105,127.12,0.07644277578110723,0.045703818237593445,79.29980097923486
106,127.47,0.10131874178645829,0.04741369513472281,78.92738665871302
107,127.81,0.1253665147608037,0.049112103554311726,78.56615196136083
108,128.16,0.14998628018236285,0.051345696861078524,78.19460636183115
109,128.5,0.1738418034783569,0.053330507868774545,77.83410269270304
110,128.84,0.1977956852514064,0.055195124563877415,77.4732117128221
111,129.19,0.22233487182981354,0.05729398554754515,77.10215087969826
112,129.53,0.24630450907629695,0.05921527330919742,76.74114669661361
113,129.88,0.2709557222269279,0.06158084731147654,76.36934698236793
114,130.21,0.29429068905567113,0.06355387483220992,76.01854943693444
115,130.56,0.3189758449045154,0.0659966121570382,75.64652451822627
116,130.9,0.3415102915606061,0.07258821629984466,75.28512888290976
117,131.25,0.3647075160595229,0.07937369115273366,74.9131039642016
118,131.61,0.3885675184012659,0.08635303671570521,74.53044976210177
119,131.97,0.4124275207430089,0.09333238227867677,74.14779556000194
120,132.33,0.43628752308475194,0.1003117278416483,73.76514135790211
121,132.68,0.45948474758366875,0.1070972026945373,73.39311643919395
122,133.04,0.4833447499254118,0.11407654825750886,83.01046223709412
123,133.4,0.4901908962218649,0.13258541465566692,82.62780803499429
124,133.8,0.49779772544014617,0.1531508217647314,82.20263669932781
125,134.17,0.5048340424670563,0.17217382334061607,81.80935321383632
126,134.54,0.5118703594939665,0.1911968249165007,91.41606972834482
127,134.89,0.5191048919091832,0.2090097490586719,91.04438622887129
128,135.25,0.5258234155325376,0.2275349420994513,90.66179353950197
129,135.61,0.5330771414200632,0.24596546912873266,90.27908291056653
130,135.96,0.5407828745192693,0.26370086458204284,89.9071926996118
131,136.33,0.5401567798325863,0.28341444617663186,89.51405161945965
132,136.72,0.5394968421898664,0.3041936267763338,89.09965967011009
133,137.09,0.5388707475031835,0.32390720837092285,88.70651858995794
134,137.45,0.559279889117572,0.31233952520387687,88.3240029444045
135,137.81,0.5796890307319604,0.3007718420368308,87.94148729885106
136,138.17,0.6000981723463489,0.2892041588697848,87.55897165329762
137,138.53,0.6205073139607371,0.2776364757027388,87.17645600774418
138,138.88,0.6403495349747259,0.2663901170681107,86.80456579678945
139,139.25,0.6613255971895139,0.2545011093686468,86.4114247166373
140,139.62,0.6819218924584033,0.2422224948155181,86.01819681002291
141,140.0,0.7035001999957881,0.23013567437573856,85.61476953360322
142,140.37,0.7243261656882609,0.21818105548218575,85.22194771964335
143,140.74,0.7447235766427053,0.20573241084456106,84.82878172532547
144,141.13,0.7660501696550128,0.19238592974843172,84.41409028405857
145,141.52,0.7875657704477096,0.17922877570664533,83.99946998463393
146,141.9,0.8088854218808497,0.16666575928213037,83.59517481045583
147,142.36,0.8348249930998513,0.15159662491098072,83.10581302839813
148,142.88,0.863682262692959,0.13423207716934699,82.55306996080573
149,143.29,0.8862649086999602,0.12022533891381877,82.1166116139007
150,143.67,0.9070456035267023,0.1069928915170861,81.71160942340906
151,144.06,0.9287732698392078,0.09363486878996363,81.29538737068182
152,144.45,0.9509312135094573,0.08069778221531727,80.87923320202249
153,144.82,0.9715794182633178,0.067961605592235,80.48397025904167
154,145.21,0.9938573476753004,0.054870731119426176,80.06675636864334
155,145.63,1.0175279705665954,0.04060582115163469,79.61799158534666
156,146.11,1.0448838431306473,0.024521116075402555,79.10484316915354
157,146.97,1.095061536010159,-0.003388407169142282,78.18453256147932
158,147.58,1.1300458519964625,0.055201240806293426,77.53109589095551
159,147.94,1.1504166765668127,0.06769946875513713,77.14504271642464
160,148.37,1.1746517823681357,0.08272287751599354,76.68389617253563
161,148.76,1.1970109093722356,0.09613795799925348,76.26508874523176
162,149.15,1.21932189937306,0.10959804418042926,75.8462813179279
163,149.51,1.239916659373821,0.12202273911689923,75.4596898465705
164,149.86,1.259939342707894,0.13410230363846726,75.08383702719523
165,150.2,1.2793899493752792,0.14583673774513334,84.71872285980211
166,150.55,1.299422519032388,0.1579239364177124,84.34280244032549
167,150.89,1.3185688465359071,0.16996521325973118,83.97757051853516
168,151.26,1.2858925610098937,0.18327459709165236,83.58034518616091
169,151.66,1.2634243217028418,0.1973817448628899,83.15111249826694
170,152.04,1.2424096698830522,0.21121197666997116,82.74276024743698
171,152.5,1.216216701833925,0.22740956864631495,82.24793867063225
172,153.0,1.1874136077937978,0.24458929373140087,81.71056613298643
173,153.55,1.1650011760192904,0.21930632491932583,81.11945634157603
174,154.23,1.1372912603708083,0.18804738166076038,80.38862969037771
175,154.94,1.1083588484437168,0.15540936737608174,79.62556068692065
176,155.32,1.0928738955813295,0.13794113437864816,89.21715755830982
177,155.69,1.077792133418192,0.12101870612481003,88.81994898745835
178,156.06,1.0616966844961273,0.10462994871007467,88.42274041660687
179,156.44,1.0451662234410337,0.08779825190575188,88.01479647897563
180,156.83,1.0282007502529116,0.07052361571184165,87.59611717456461
181,157.23,1.0108002649317605,0.052806040128343966,87.16670250337383
182,157.63,0.9933997796106095,0.03508846454484628,86.73728783218304
183,158.0,0.9773043306885449,0.01869970713011094,96.34007926133157
184,158.38,1.0048975569873764,0.021654854366728107,95.93213532370032
185,158.75,1.0318460608268838,0.024253101063570558,95.53477966893202
186,159.12,1.0449078365869473,0.042121580701256586,95.13742401416371
187,159.47,1.0572635704140343,0.05902419657474336,94.76154704343693
188,159.85,1.0706783671405862,0.07737560809452901,94.35345204664786
189,160.21,1.0833871219341613,0.09476115585011544,93.96683573390033
190,160.57,1.0960958767277365,0.11214670360570182,93.58021942115279
191,160.94,1.1091576524877997,0.13001518324338784,93.18286376638449
192,161.38,1.1246905750132805,0.1512641860557712,49.52746895108634
193,161.8,1.1395128031182342,0.1716369463321497,49.075924080199876
194,162.18,1.1536219013641127,0.1898167507591453,48.66714578096395
195,162.57,1.182398250545201,0.18928654698747743,48.247610158063914
196,162.95,1.210436744619082,0.18876993818431384,47.83883185882799
197,163.35,1.239950948907378,0.18822613944414165,47.40853891226385
198,163.75,1.2694651531956738,0.18768234070396947,46.97824596569971
199,164.15,1.2989793574839694,0.18713854196379726,46.547953019135576
200,164.55,1.328432199812229,0.18597714018580674,46.117802087314914
201,164.93,1.2686965963199277,0.1850441568673118,45.70973419939485
202,165.3,1.241511186152862,0.18435889778073772,45.31223218131499
203,165.68,1.2135196446432082,0.18417276461608434,44.90371457975208
204,166.07,1.1848023757560242,0.18456005329906244,44.484481933695385
205,166.45,1.156884137295356,0.18503947829768233,44.07628634510415
206,166.83,1.1289006877912167,0.18568287325959348,43.66774976432288
207,167.27,1.0966021714710408,0.18571660982239324,43.1952765107371
208,167.81,1.0650709643551988,0.16770031501592692,42.61542297224547
209,168.22,1.0411306033968744,0.15402127636657284,52.17516380413145
210,168.6,1.0194059513189155,0.14087938488702126,51.76704020110578
211,168.99,0.9980659531975127,0.15521092527652802,51.348176503263645
212,169.37,0.97727313451512,0.16917499027143207,50.94005290023797
213,169.76,0.9559331363937171,0.18350653066093886,50.52118920239584
214,170.15,0.9345931382723142,0.19783807105044565,55.102325504553704
215,170.53,0.9142426374620103,0.2120191313188581,54.69483463190987
216,170.91,0.8942952811840752,0.22642448213205574,54.28776321565701
217,171.31,0.8738414093973094,0.24201142755450192,53.85921554035617
218,171.69,0.854775963092886,0.2570689648618969,53.452165381572776
219,172.08,0.8357311853148829,0.27276881251434537,53.03495710379213
220,172.46,0.8267921308380957,0.2923328553910796,52.62844647415971
221,172.85,0.8176178380856035,0.31241174150141215,52.211238196379064
222,173.24,0.8084435453331114,0.33249062761174464,51.79402991859842
223,173.63,0.7992692525806192,0.3525695137220772,51.376821640817774
224,174.04,0.7700918907538801,0.34820719233614705,60.93821806674069
225,174.43,0.7501046858042794,0.3632336278981971,70.52100978896004
226,174.82,0.7600617682412346,0.38310163624480836,70.1038015111794
227,175.2,0.7697635408721141,0.4024602084799681,69.69729088154698
228,175.63,0.7807418625333724,0.4243659612723857,79.23729201117345
229,176.05,0.7909279979809145,0.44592336640281854,78.78790612539926
230,176.45,0.8006116237820464,0.4664890645059354,78.35973732522835
231,177.31,0.8227038682187405,0.5104134031637844,77.43883440899556
232,177.86,0.8373462517982205,0.5383184194572499,76.85010991935684
233,178.29,0.8484290291024276,0.5602598741317193,76.38972025567655
234,178.68,0.8585147324613079,0.5802404401945593,75.97162006533968
235,179.07,0.8679120511577092,0.6003653726359641,75.55378288317425
236,179.44,0.8771111702174045,0.6193202693627439,75.15774697880656
237,179.83,0.8874582846829597,0.639092230919936,74.74044114497941
238,180.21,0.8980024163515989,0.6581874540492766,74.33401312439095
239,180.59,0.9086565279615036,0.6772132472206639,73.92779201453169
240,180.98,0.9193592844260136,0.6968361010987241,73.51073696463203
241,181.36,0.9300398640877913,0.7158578823889605,73.10449027132226
242,181.75,0.940168466924907,0.7355286237814472,72.68816864237026
243,182.14,0.9507605668092617,0.7137008528289142,72.27192063360911
244,182.52,0.9520898804466162,0.6931903724556302,71.86634565071364
245,182.9,0.9534191940839708,0.6726798920823462,71.46077066781817
246,183.3,0.9548184715969756,0.6510899127420473,71.03384963319135
247,183.78,0.9564976046125814,0.6251819375336887,70.52154439163918
248,184.18,0.9356789280298075,0.6401295574795507,70.09462335701237
249,184.58,0.9148602514470335,0.6550771774254127,69.66770232238555
250,184.96,0.8950825086933984,0.6692774163739815,69.26212733949008
251,185.35,0.8747842990251938,0.683851345821197,68.84587933072893
252,185.74,0.8544860893569892,0.6984252752684125,68.42963132196779
253,186.13,0.8341878796887846,0.7129992047156278,68.01338331320665
254,186.52,0.8138896700205802,0.7275731341628433,77.5971353044455
255,186.9,0.8412416891737234,0.7266517225685123,77.19156032155003
256,187.28,0.8686013290447211,0.7258829587942872,76.78598899638122
257,187.68,0.8973906675970574,0.7248890121683299,76.35907181199299
258,188.07,0.9254602726855853,0.7239199142080216,75.94282755721447
259,188.5,0.9564088116293468,0.7228514215851176,75.48389158399713
260,188.91,0.9859178836454915,0.7218326262935115,75.04630146999921
261,189.31,1.0147072221978277,0.7208386796675543,74.61938428561098
262,189.72,1.0442162942139723,0.7198198843759482,74.18179417161305
263,190.12,1.0730056327663087,0.7188259377499909,83.75487698722482
264,190.52,1.1015513520028075,0.721799973584217,83.32795980283659
265,190.92,1.1302182401950849,0.724167647436778,82.90094487424884
266,191.33,1.159473683759806,0.7271092466432527,82.46346582203924
267,191.73,1.187929202113274,0.7304153476373395,82.03666812021669
268,192.14,1.217089822029496,0.7334834611391977,81.59952996213859
269,192.55,1.246390261870915,0.7364840548770017,81.16178625305648
270,192.98,1.277273325777218,0.729157491484446,80.7019929033248
271,193.39,1.3066363452013958,0.726264490012045,80.2640428940792
272,193.83,1.3381739785765814,0.7230128991708777,79.79379834372969
273,194.24,1.2574683755109441,0.7202509079315969,79.35598070264908
274,194.65,1.2281891965012737,0.7169260336484192,78.91804225521645
275,195.05,1.199628373518214,0.7141593510625126,78.49122951061848
276,195.46,1.189279213366501,0.6934261125956914,78.05374644740556
277,195.87,1.1789300532147882,0.6726928741288704,77.61626338419264
278,196.27,1.168833311603361,0.6524653244051424,77.18945063959467
279,196.68,1.158484151451648,0.6317320859383213,76.75196757638174
280,197.08,1.1483874098402207,0.6115045362145934,76.32515483178378
281,197.5,1.1214013961393183,0.6012734277637559,75.87700144995591
282,197.91,1.0948790049380692,0.5914509130721514,75.43922217283439
283,198.31,1.0689484320166194,0.5819395623913487,75.01208528492194
284,198.74,1.040981923923357,0.5717391778398244,74.55258813649844
285,199.17,1.0112112057278422,0.5784810003746969,74.09309098807495
286,199.58,0.9828251720995608,0.5849092497684124,73.65496580004324
287,200.06,0.9495927424859628,0.592435005156177,73.14203875064027
288,200.46,0.9218990511412978,0.5987064679793141,72.71459954280445
289,200.84,0.8955900443638661,0.6046643576612943,72.30853229536042
290,201.24,0.9237637549446712,0.6095884253820364,71.8810930875246
291,201.64,0.9519374655254763,0.6145124931027783,71.45365387968879
292,202.04,0.9802074097922424,0.6192179203259857,71.02607463035191
293,202.45,1.0091505321865564,0.6237320006081141,70.58837898552183
294,202.87,1.0388204970017716,0.628424550864999,70.13981989957536
295,203.27,1.0670902235764277,0.6327464845263523,69.7127526986707
296,203.68,1.0963019093564144,0.636779450119084,69.27438418201118
297,204.1,1.1263692035962871,0.64074148130073,68.82483941254928
298,204.52,1.1565577668113292,0.6442461549566377,68.37519749418014
