,t,x,y,energy,sight
0,126.898,0.10699645174884213,0.19853834300871137,49.928567535226605,95.26349967283832
1,126.974,0.11057467729515746,0.19799243524192572,49.85713507045321,95.26349967283832
2,127.052,0.114247066671639,0.19743216148127726,49.78382280397525,95.26349967283832
3,127.128,0.11782529221795432,0.1968862537144916,49.71239033920185,95.26349967283832
4,127.206,0.12149768159443586,0.19632597995384315,49.63907807272389,95.26349967283832
5,127.282,0.12507590714075117,0.19578007218705748,49.567645607950496,95.26349967283832
6,127.36,0.1287482965172327,0.19521979842640905,49.49433334147253,95.26349967283832
7,127.436,0.13232652206354806,0.19467389065962337,49.42290087669914,95.26349967283832
8,127.514,0.13599891144002957,0.19411361689897494,49.349588610221176,95.26349967283832
9,127.598,0.1399537923070097,0.19351024515673815,49.27063693862953,95.26349967283832
10,127.676,0.14362618168349123,0.19294997139608971,49.19732467215157,95.26349967283832
11,127.752,0.14720440722980654,0.19240406362930404,49.12589220737817,95.26349967283832
12,127.832,0.15097096043645425,0.19182942387479282,49.05070013919565,95.26349967283832
13,127.91,0.1546433498129358,0.1912691501141444,48.977387872717685,95.26349967283832
14,127.996,0.1586923945100821,0.1906514123780448,48.89655639942147,95.26349967283832
15,128.078,0.16255311154689603,0.19006240662967083,48.819484529534385,95.26349967283832
16,128.154,0.16613133709321137,0.18951649886288519,48.74805206476099,95.26349967283832
17,128.234,0.16989789029985908,0.18894185910837397,48.67285999657847,95.26349967283832
18,128.312,0.17357027967634062,0.1883815853477255,48.599547730100504,95.26349967283832
19,128.39,0.17724266905282215,0.18782131158707707,48.52623546362254,95.26349967283832
20,128.468,0.1809150584293037,0.1872610378264286,48.45292319714458,95.26349967283832
21,128.548,0.1846816116359514,0.1866863980719174,48.377731128962054,95.26349967283832
22,128.624,0.18825983718226674,0.18614049030513174,48.30629866418866,95.26349967283832
23,128.702,0.19193222655874828,0.1855802165444833,48.2329863977107,95.26349967283832
24,128.78,0.19560461593522982,0.18501994278383488,48.159674131232734,95.26349967283832
25,128.856,0.19918284148154516,0.18447403501704923,48.08824166645934,95.26349967283832
26,128.932,0.2027610670278605,0.18392812725026358,48.016809201685945,95.26349967283832
27,129.01,0.20452094209900892,0.18065655421068216,47.94349693520798,95.26349967283832
28,129.088,0.20628081717015734,0.17738498117110074,47.87018466873002,95.26349967283832
29,129.164,0.2079955672394814,0.17419729461971373,47.798752203956624,95.26349967283832
30,129.24,0.20971031730880546,0.1710096080683267,47.72731973918323,95.26349967283832
31,129.316,0.21142506737812955,0.1678219215169397,47.655887274409835,95.26349967283832
32,129.392,0.2131398174474536,0.16463423496555268,47.58445480963644,95.26349967283832
33,129.47,0.21489969251860203,0.1613626619259713,47.51114254315848,95.26349967283832
34,129.55,0.2167046925915747,0.1580072023981955,47.435950474975954,95.26349967283832
35,129.63,0.21850969266454742,0.15465174287041966,47.36075840679343,95.26349967283832
36,129.712,0.2203598177393445,0.15121239685444948,47.283686536906345,95.26349967283832
37,129.794,0.22220994281414153,0.14777305083847928,47.20661466701926,95.26349967283832
38,129.91,0.22482719291995198,0.14290763452320435,47.0975861681546,95.26349967283832
39,129.984,0.22649681798745175,0.1398038344600117,47.028033505085766,95.26349967283832
40,130.064,0.22830181806042446,0.1364483749322359,46.95284143690324,95.26349967283832
41,130.14,0.23001656812974852,0.1332606883808489,51.88140897212985,95.26349967283832
42,130.216,0.2317313181990726,0.13007300182946188,51.80997650735645,95.26349967283832
43,130.292,0.23344606826839667,0.12688531527807487,51.73854404258306,95.26349967283832
44,130.368,0.23516081833772073,0.12369762872668785,51.66711157780966,95.26349967283832
45,130.44,0.2367853184033962,0.12067771515168964,51.59943871644539,95.26349967283832
46,130.516,0.23850006847272026,0.11749002860030262,51.528006251672,95.26349967283832
47,130.59,0.24016969354022005,0.11438622853711,51.45845358860316,95.26349967283832
48,130.664,0.24183931860771982,0.11128242847391738,51.38890092553433,95.26349967283832
49,130.738,0.24350894367521958,0.10817862841072476,51.319348262465496,95.26349967283832
50,130.812,0.24517856874271934,0.10507482834753215,51.24979559939666,95.26349967283832
51,130.886,0.2468481938102191,0.10197102828433953,51.18024293632783,95.26349967283832
52,130.96,0.2485178188777189,0.09886722822114691,51.110690273258996,95.26349967283832
53,131.034,0.25018744394521863,0.09576342815795429,51.04113761019016,95.26349967283832
54,131.108,0.2518570690127184,0.09265962809476166,50.97158494712133,95.26349967283832
55,131.184,0.2535718190820425,0.08947194154337465,50.900152482347934,95.26349967283832
56,131.258,0.2552414441495423,0.08636814148018204,55.8305998192791,95.26349967283832
57,131.33,0.25687331843160044,0.08334251895540953,55.762872409398625,95.26349967283832
58,131.406,0.258550095547844,0.08013080869094431,55.69141789674962,95.26349967283832
59,131.51,0.26071909093777695,0.07566392797913163,55.59358845148997,95.26349967283832
60,131.59,0.2623964012189734,0.0722349708281155,55.518351086925705,95.26349967283832
61,131.662,0.26384411007343095,0.06910894513098867,55.45057672543534,95.26349967283832
62,131.738,0.26529035744352536,0.06577311482197358,55.379040454328816,95.26349967283832
63,131.814,0.26665345026914966,0.06240960777953638,55.307546638353884,95.26349967283832
64,131.894,0.26816227481857535,0.05890886894718841,55.232342319627406,95.26349967283832
65,131.974,0.2697523345297161,0.05544015752413791,55.15711406757796,95.26349967283832
66,132.058,0.27142311282139187,0.051810574372051346,55.07819422359817,95.26349967283832
67,132.136,0.27290693010338185,0.048404240398594214,55.00487810314458,95.26349967283832
68,132.21,0.2742736597192026,0.04517524212829024,54.93544090428881,95.26349967283832
69,132.286,0.27566560811087804,0.04186170158988413,54.8641722550178,95.26349967283832
70,132.358,0.277015160388939,0.0387221051924724,54.7965746641329,95.26349967283832
71,132.432,0.27847393135213616,0.035543363065278846,54.727194088483266,95.26349967283832
72,132.504,0.2799624488447344,0.032477691159085845,54.659656817505926,95.26349967283832
73,132.576,0.2814030915186114,0.029388124952104418,54.59211312284807,95.26349967283832
74,132.65,0.27821022155970887,0.030830699987747782,54.52269321444972,95.26349967283832
75,132.724,0.2749955259949125,0.03223409373379736,54.45324743673204,95.26349967283832
76,132.794,0.2719721861995913,0.033601210848037334,54.387555484836945,95.26349967283832
77,132.866,0.2688624652672609,0.03500738845125558,54.31998662003056,95.26349967283832
78,132.934,0.2659255066089488,0.036335445076517266,54.25617158104676,95.26349967283832
79,133.008,0.26272940453960925,0.0377806831687138,54.18672580332908,95.26349967283832
80,133.08,0.25961968360727883,0.03918686077193205,54.1191569385227,95.26349967283832
81,133.15,0.2565963438119576,0.04055397788617202,54.0534649866276,95.26349967283832
82,133.22,0.2535730040166364,0.04192109500041199,53.987773034732506,95.26349967283832
83,133.292,0.250463283084306,0.04332727260363024,53.92020416992612,95.26349967283832
84,133.364,0.24735356215197563,0.04473345020684849,53.85263530511974,95.26349967283832
85,133.436,0.2442438412196452,0.04613962781006674,53.78506644031336,95.26349967283832
86,133.506,0.241220501424324,0.04750674492430671,53.71937448841826,95.26349967283832
87,133.588,0.2376788748069477,0.04910822497241639,53.64242105905544,95.26349967283832
88,133.664,0.23439639160059894,0.05059252355359121,53.571098368426476,95.26349967283832
89,133.74,0.23111390839425017,0.05207682213476603,53.499775677797516,95.26349967283832
90,133.814,0.2279178063249106,0.05352206022696256,53.43032990007984,95.26349967283832
91,133.886,0.22480808539258018,0.05492823783018082,53.36276103527346,95.26349967283832
92,133.958,0.2216983644602498,0.056334415433399065,53.295192170467075,95.26349967283832
93,134.032,0.21850226239091022,0.057779653525595595,53.2257463927494,95.26349967283832
94,134.13,0.2142695866774605,0.05969361748553155,53.133777660096264,95.26349967283832
95,134.202,0.21115986574513007,0.0610997950887498,53.06620879528988,95.26349967283832
96,134.274,0.20805014481279968,0.06250597269196805,52.9986399304835,95.26349967283832
97,134.342,0.20511318615448762,0.06383402931722973,52.934824891499694,95.26349967283832
98,134.41,0.20217622749617553,0.06516208594249143,52.87100985251589,95.26349967283832
99,134.482,0.1990665065638451,0.06656826354570967,52.80344098770951,95.26349967283832
100,134.55,0.19612954790553308,0.06789632017097136,52.7396259487257,95.26349967283832
101,134.622,0.19301982697320266,0.0693024977741896,52.67205708391932,95.26349967283832
102,134.69,0.1900828683148906,0.07063055439945129,52.608242044935515,95.26349967283832
103,134.758,0.18714590965657857,0.07195861102471299,52.54442700595171,95.26349967283832
104,134.828,0.18412256986125733,0.07332572813895295,52.478735054056614,95.26349967283832
105,134.896,0.18118561120294527,0.07465378476421464,52.41492001507281,95.26349967283832
106,134.966,0.17816227140762403,0.0760209018784546,52.34922806317771,95.26349967283832
107,135.036,0.17513893161230282,0.07738801899269457,52.283536111282615,95.26349967283832
108,135.104,0.17220197295399076,0.07871607561795625,52.21972107229881,95.26349967283832
109,135.174,0.16917863315866952,0.08008319273219622,52.15402912040371,95.26349967283832
110,135.242,0.16624167450035748,0.08141124935745789,52.09021408141991,95.26349967283832
111,135.312,0.16321833470503624,0.08277836647169787,62.02452212952481,95.26349967283832
112,135.38,0.16030800704100573,0.08416953358915918,61.96069131879708,95.26349967283832
113,135.452,0.15722316521968654,0.08561540010091791,61.89316085608019,95.26349967283832
114,135.524,0.1541348765043799,0.08709481649814599,61.82551851087257,95.26349967283832
115,135.598,0.15098688396999124,0.08865130338610114,61.756046541353136,95.26349967283832
116,135.67,0.1540661728969732,0.09013213911713903,61.68845219263152,95.26349967283832
117,135.74,0.15705992602042787,0.09157184052231476,61.62273546470773,95.26349967283832
118,135.81,0.16005367914388252,0.09301154192749048,61.55701873678394,95.26349967283832
119,135.88,0.1630474322673372,0.09445124333266622,61.491302008860146,95.26349967283832
120,135.95,0.16604118539079188,0.09589094473784195,61.42558528093635,95.26349967283832
121,136.024,0.1692060101213011,0.097412914794742,61.35611331141692,95.26349967283832
122,136.1,0.17245637065533762,0.09897601917750422,61.28476372109966,95.26349967283832
123,136.174,0.17562119538584683,0.10049798923440427,61.215291751580224,95.26349967283832
124,136.244,0.1786149485093015,0.10193769063958,61.14957502365643,95.26349967283832
125,136.318,0.18177977323981073,0.10345966069648005,61.080103054137,95.26349967283832
126,136.386,0.1846879905597381,0.10485822777579361,61.016263947011026,95.26349967283832
127,136.454,0.18759620787966552,0.10625679485510717,60.952424839885055,95.26349967283832
128,136.524,0.19058996100312017,0.10769649626028291,70.88670811196127,95.26349967283832
129,136.592,0.19349805707106357,0.10911351290873336,70.82281825531014,95.26349967283832
130,136.662,0.19649135545627136,0.11054802904542763,70.75711851328242,95.26349967283832
131,136.73,0.19940584522948188,0.11193165391936621,70.69328441389544,95.26349967283832
132,136.798,0.2023496868467498,0.11322265732446277,70.62952561050683,95.26349967283832
133,136.866,0.2052422979171215,0.11458874850711231,70.56586608779395,95.26349967283832
134,136.936,0.2082470334202134,0.1159255188904742,70.50036226089625,95.26349967283832
135,137.004,0.21118019740087415,0.11716216298935316,70.43680368383951,95.26349967283832
136,137.11,0.2157614774770472,0.1191102444477549,70.3376232312972,95.26349967283832
137,137.182,0.21890842501155552,0.12036405020912049,70.27021660841383,95.26349967283832
138,137.248,0.22177812111589518,0.12151373190078363,70.20851553283141,95.26349967283832
139,137.314,0.22464333697606248,0.12270255211633374,70.14674643044584,95.26349967283832
140,137.38,0.22747172131399834,0.1239554024762605,70.08503245291416,95.26349967283832
141,137.448,0.2303819989593058,0.1252519519876042,70.02145577174923,95.26349967283832
142,137.516,0.23332097388240602,0.12650306124824073,69.95782683767621,95.26349967283832
143,137.588,0.23642676957014896,0.12784571221476151,69.89044538449664,95.26349967283832
144,137.66,0.23951804634775192,0.1292475739780863,69.82299544496267,95.26349967283832
145,137.73,0.24254164162086145,0.13056475378628,69.75743166662338,95.26349967283832
146,137.796,0.24536771399573404,0.13183153049354668,69.69569492749672,95.26349967283832
147,137.862,0.2481974090151553,0.13313182927019426,69.6338484064841,95.26349967283832
148,137.928,0.25101026452839015,0.1344453180153654,69.57206419379547,95.26349967283832
149,137.996,0.2538955557251189,0.13578689191979224,69.50851367436913,95.26349967283832
150,138.068,0.2569324241504565,0.13727355605430897,69.44114730003139,95.26349967283832
151,138.138,0.25985890410871704,0.13876886755159953,69.3756582188995,95.26349967283832
152,138.208,0.26273799663742076,0.14032323401879548,69.3102618575462,95.26349967283832
153,138.278,0.26562705512165186,0.14187616001302367,69.24481371568106,95.26349967283832
154,138.344,0.2683326484810079,0.14334296869152172,69.18320098883777,95.26349967283832
155,138.412,0.2711511998671417,0.14482429511931466,69.1196365615592,95.26349967283832
156,138.48,0.2739618417451716,0.14628406124968232,69.05618089813098,95.26349967283832
157,138.548,0.2767991574406653,0.14772054053151235,68.99264133623426,95.26349967283832
158,138.614,0.27955142477803485,0.14911558243099174,68.93097735929581,95.26349967283832
159,138.682,0.28238836935229716,0.15052438917653924,68.86751930540036,95.26349967283832
160,138.75,0.2852098466041923,0.15194538092911197,68.8041149064147,95.26349967283832
161,138.814,0.2878414339986479,0.15332039938510186,68.74446650437987,95.26349967283832
162,138.88,0.29051455751789695,0.154796077963484,68.68300884114574,95.26349967283832
163,138.95,0.29334842092381963,0.15637046192880913,68.61780482443716,95.26349967283832
164,139.016,0.2960511549164478,0.15781483566794613,68.5562762659798,95.26349967283832
165,139.082,0.2987688448624343,0.159215358730306,68.4947933756465,95.26349967283832
166,139.15,0.301603485887105,0.16059307821059146,68.43143628663412,95.26349967283832
167,139.216,0.3043183419130286,0.16201129136463807,68.36991735280796,95.26349967283832
168,139.282,0.30701734363895017,0.16344708661982948,68.30843570297623,95.26349967283832
169,139.35,0.3097976681562215,0.16491490500585065,68.24512802461498,95.26349967283832
170,139.418,0.3125981668740368,0.16636245932403743,68.18176595518929,95.26349967283832
171,139.482,0.31527891441909534,0.16765901692829968,68.12206208600185,95.26349967283832
172,139.552,0.3182135584392543,0.16907160212981978,68.05676149364453,95.26349967283832
173,139.62,0.3210818693128791,0.17037927373393819,67.99340043350844,95.26349967283832
174,139.686,0.3239040970722259,0.1715808957562696,67.93185321476341,95.26349967283832
175,139.76,0.3270808983077331,0.17287173765260547,67.86291067692947,95.26349967283832
176,139.828,0.32999286324292415,0.17404022602749097,67.79964353859484,95.26349967283832
177,139.894,0.3328350379431363,0.17510410833442108,67.73830509853755,95.26349967283832
178,139.962,0.3357803141687009,0.17617829843175184,67.67505466082163,95.26349967283832
179,140.028,0.33865056500276003,0.17722902643389862,67.61357693572461,95.26349967283832
180,140.1,0.3417924251504703,0.17833238829851322,67.54653865519352,95.26349967283832
181,140.168,0.34478813139947156,0.1793384560611591,67.48312769660141,95.26349967283832
182,140.238,0.34787442487969494,0.1803240324139057,67.41793641584762,95.26349967283832
183,140.306,0.3508249279833599,0.1813687811526238,67.3547182259725,95.26349967283832
184,140.372,0.3536664669233348,0.1824454286442194,67.293354800223,95.26349967283832
185,140.44,0.3565851277157165,0.18354641909310598,67.2302044132438,95.26349967283832
186,140.504,0.3593553729239606,0.18454194152403947,67.17071902367739,95.26349967283832
187,140.57,0.36221540838272387,0.18557322472957202,67.10934524403949,95.26349967283832
188,140.636,0.36504416991126076,0.18668197900632097,67.04798422532066,95.26349967283832
189,140.704,0.3679512740174103,0.18780215751167456,66.98485919931254,95.26349967283832
190,140.768,0.3706584694009492,0.18893239533496464,66.92543803357421,95.26349967283832
191,140.834,0.37347943253415955,0.19002115286483443,66.86416992238699,95.26349967283832
192,140.902,0.3763888796733228,0.1910939462727531,66.80113784900105,95.26349967283832
193,140.966,0.3791106064372807,0.19219233347927842,66.74170806075703,95.26349967283832
194,141.034,0.38200656572141467,0.1933364483851617,66.67859379699632,95.26349967283832
195,141.098,0.3832600062264401,0.19598547808417685,66.61919213698624,95.26349967283832
196,141.166,0.38459178676302963,0.19880007213938045,66.55607787322553,95.26349967283832
197,141.232,0.3858843972838371,0.20153188401648983,66.49481991134014,95.26349967283832
198,141.296,0.3871378377888625,0.20418091371550498,66.43541825133006,95.26349967283832
199,141.362,0.38843044830967,0.20691272559261434,66.37416028944467,95.26349967283832
200,141.43,0.38976222884625955,0.20972731964781793,66.31104602568396,95.26349967283832
201,141.494,0.39101566935128496,0.21237634934683308,66.25164436567388,95.26349967283832
202,141.566,0.39242578991943855,0.21535650775822512,66.18481749816254,95.26349967283832
203,141.638,0.39383591048759214,0.21833666616961717,66.1179906306512,95.26349967283832
204,141.704,0.39176759746866746,0.22054023585223775,66.05673266876582,95.26349967283832
205,141.774,0.3895739321455655,0.22287735521259294,65.9917621031298,95.26349967283832
206,141.84,0.38750561912664083,0.22508092489521353,65.93050414124441,95.26349967283832
207,141.908,0.3853746299556275,0.22735126941670142,65.8673898774837,95.26349967283832
208,141.974,0.3833063169367028,0.229554839099322,65.80613191559831,95.26349967283832
209,142.042,0.38117532776568946,0.23182518362080992,65.7430176518376,95.26349967283832
210,142.112,0.3789816624425876,0.2341623029811651,65.67804708620159,95.26349967283832
211,142.178,0.37691334942366284,0.2363658726637857,65.6167891243162,95.26349967283832
212,142.248,0.37471968410056095,0.2387029920241409,65.55181855868018,95.26349967283832
213,142.316,0.3725886949295476,0.2409733365456288,65.48870429491947,95.26349967283832
214,142.386,0.37039502960644566,0.243310455905984,65.42373372928346,95.26349967283832
215,142.452,0.368326716587521,0.24551402558860458,65.36247576739807,95.26349967283832
216,142.52,0.36619572741650763,0.2477843701100925,65.29936150363736,95.26349967283832
217,142.588,0.36406473824549435,0.2500547146315804,65.23624723987665,95.26349967283832
218,142.654,0.3619964252265696,0.252258284314201,65.17498927799126,95.26349967283832
219,142.722,0.3598654360555563,0.2545286288356889,65.11187501423055,95.26349967283832
220,142.788,0.3577971230366316,0.2567321985183095,65.05061705234516,95.26349967283832
221,142.852,0.35579148616979556,0.2588689933620628,74.99121539233508,95.26349967283832
222,142.92,0.3582864385894084,0.26073199940528813,74.92810112857437,95.26349967283832
223,142.986,0.36070801005550324,0.2625402111531244,74.86684316668898,95.26349967283832
224,143.052,0.363129581521598,0.2643484229009608,74.80558520480359,95.26349967283832
225,143.116,0.3654777720341748,0.2661018403534081,74.74618354479351,95.26349967283832
226,143.182,0.36789934350026965,0.2679100521012444,74.68492558290812,95.26349967283832
227,143.25,0.3703942959198825,0.2697730581444698,74.62181131914741,95.26349967283832
228,143.316,0.3728158673859773,0.2715812698923061,74.56055335726202,95.26349967283832
229,143.384,0.37531081980559017,0.27344427593553144,74.49743909350131,95.26349967283832
