,t,x,y,energy
0,145.21,1.0462244105583438,0.5701182285117922,49.802644417803045
1,145.63,1.0217965474262185,0.560459530593739,49.59030462760218
2,146.11,0.9942214391042578,0.5488243063239798,49.34724708083715
3,146.97,0.9448208778419352,0.5284008270810509,48.91310634334287
4,147.58,0.9097565427399789,0.5139898998885315,48.60529937745738
5,147.94,0.888932033091679,0.505807413733554,48.424063785839
6,148.37,0.8641672091370608,0.49568727386274086,48.207003482468984
7,148.76,0.8418497208242303,0.48630264446275806,48.0101007481809
8,149.15,0.8198842321356337,0.47642420629982735,47.81307396656817
9,149.51,0.7999239966289617,0.46705664730346286,47.63166239469573
10,149.86,0.7805962245689613,0.4579372767014583,47.45556633788373
11,150.2,0.7615093014822804,0.4493809009795896,47.284239472236536
12,150.55,0.7418268327525189,0.4406194078455436,47.107885107300426
13,150.89,0.7227704904325447,0.43204658293374515,46.93663009792937
14,151.26,0.7016641632902912,0.4231769231660759,46.750209589415086
15,151.66,0.6790871384699174,0.41306976718018795,46.54801255890075
16,152.04,0.6575477026320237,0.40372663467958236,46.35638637531046
17,152.5,0.6310824515023562,0.3929842385567655,46.12455364161095
18,153.0,0.601966088812821,0.38195984689487567,45.87300765013056
19,153.55,0.5697074220377648,0.3701061747203066,45.59609423189518
20,154.23,0.5297055076412419,0.3556390769517847,45.253744084113954
21,154.94,0.4876715483663617,0.3413580573945388,44.89736263649092
22,155.32,0.4654215080438858,0.33328685097330185,44.70653586665207
23,155.69,0.4435930026916496,0.32551779541196196,44.52026913988003
24,156.06,0.4219645460066435,0.31746070825596906,44.33406099666104
25,156.44,0.39987442458174915,0.30881474553474,44.14226804077668
26,156.83,0.3771919945987333,0.29977193807603986,43.944876233732394
27,157.23,0.3540169377845376,0.2905213414782333,43.74287251845092
28,157.63,0.3306630018853829,0.2817158996853045,43.541415413360966
29,158.0,0.3094223904676509,0.2731505322442762,43.355367021805186
30,158.38,0.2879177170641809,0.26409803740372173,43.164806692317406
31,158.75,0.26687115260263944,0.2555892199018645,42.97974998977985
32,159.12,0.24589652254863392,0.24706998410663022,42.79496537203
33,159.47,0.22627776139656516,0.23858832399172109,42.619779243011635
34,159.85,0.20487102473857538,0.22960973946610883,42.42986023321574
35,160.21,0.18423632591713632,0.22155546746032515,42.24981207392869
36,160.57,0.16367200607608548,0.21351979347524602,42.07011851837214
37,160.94,0.14251660376813255,0.20510775203330142,41.88489310393744
38,161.38,0.11759005532414607,0.19467210564184645,41.66427811091747
39,161.8,0.09368048143763137,0.18483570433718305,41.45359069814056
40,162.18,0.07221860663438863,0.17557291909301317,41.262543954982405
41,162.57,0.05036694969056747,0.16569767698330973,41.06599601241396
42,162.95,0.029375285760785276,0.1556529067481185,40.874284375121825
43,163.35,0.00726514093861883,0.14491314696603425,40.671851928759764
44,163.75,0.056755959523756526,0.13460091844314742,40.46988851128506
45,164.15,0.07900823571679141,0.12397319909532026,40.26726949807529
46,164.55,0.10096223623941565,0.11282468184607353,40.06401741655358
47,164.93,0.12139633250704467,0.10183522100524037,39.87113291752467
48,165.3,0.14154997014945522,0.09148289442310907,39.68359107982832
49,165.68,0.16243296912286792,0.08101944498316223,39.49085116918953
50,166.07,0.18428307017943954,0.07065594800725555,39.29266792041421
51,166.45,0.20576659361520513,0.06093821766474563,39.100053502418426
52,166.83,0.2274849608499487,0.05167334431232547,38.90793148758322
53,167.27,0.2525454703564063,0.040640100044474874,38.68485803559859
54,167.81,0.28275103355430364,0.02643428096425441,38.411137007045845
55,168.22,0.30566934363108605,0.015648952914824134,38.203376929104124
56,168.6,0.32670409379839344,0.005397558840862124,38.01077548805799
57,168.99,0.348372546039161,0.03639673389606316,37.81270229792509
58,169.37,0.3690778648303696,0.047046133844693125,37.62000157059141
59,169.76,0.39021901064334813,0.05807554963227897,37.422297595076834
60,170.15,0.4117582698780575,0.06874125509498591,37.22431773371621
61,170.53,0.4332673660670231,0.07869355522104457,37.03081672256885
62,170.91,0.4543265113081673,0.08906688806711513,36.83769042761853
63,171.31,0.4764401668424619,0.10018715799374237,36.633903820595556
64,171.69,0.49784320642520336,0.11046059322655069,36.439740268744465
65,172.08,0.5194292312493017,0.12143600509490786,36.240471617796274
66,172.46,0.540535508366274,0.13192293424106916,36.04675616001288
67,172.85,0.557410391337955,0.1171039201266277,35.84794292702466
68,173.24,0.5742852743096359,0.1022849060121862,45.64912969403644
69,173.63,0.5625257598666684,0.1196629279212427,45.45031646104822
70,174.04,0.5495995928223667,0.1376052451745017,45.24190567710421
71,174.43,0.5373619727338407,0.15478725297576873,45.04314509858319
72,174.82,0.5256772945175812,0.1721579258443398,44.844536016675676
73,175.2,0.5142804303603741,0.18898610678810404,44.651548299996385
74,175.63,0.5010765843263411,0.2080183848887797,44.432550519786204
75,176.05,0.4877346629836203,0.22649008040785792,44.218310519700566
76,176.45,0.47547070473534847,0.24422419180265348,44.01446452157581
77,177.31,0.44786770686961214,0.2818431189657164,43.57627603664299
78,177.86,0.42927962465049496,0.3056353917553834,43.295304770596815
79,178.29,0.41417524949769496,0.324104702180686,43.07494885953784
80,178.68,0.40010401292237935,0.3407219967355284,42.87487310155636
81,179.07,0.3854182370423416,0.35699377205142946,42.675028897753506
82,179.44,0.370892575375093,0.37208537554866206,42.485615531564385
83,179.83,0.35604769985042656,0.38833524716175166,42.285457330092534
84,180.21,0.34131619181612227,0.4039437269133276,42.090878459656686
85,180.59,0.32612957787206137,0.4193204289696938,41.89621974953338
86,180.98,0.31024725639288026,0.43492401068847225,41.69649364694631
87,181.36,0.29544024850737877,0.4504238887483597,41.50227070883215
88,181.75,0.2798815337807285,0.4660524912848015,41.303352758192744
89,182.14,0.26433365787145385,0.48165989107533713,41.10457466038896
90,182.52,0.24882916683059006,0.49664302021919804,40.91100122150973
91,182.9,0.23347646269761793,0.5116992464654149,40.71750184074133
92,183.3,0.2176814062025672,0.5277337163489375,40.51392241461804
93,183.78,0.1983899057331115,0.54682894807696,40.26940561604387
94,184.18,0.18209253068073641,0.5627281254564094,40.0650664137204
95,184.58,0.16567929742912169,0.5785841048958458,39.8606059994816
96,184.96,0.1498915676586535,0.5934690932475487,39.666686456458784
97,185.35,0.13329534028212084,0.6085923875762885,39.46724027017345
98,185.74,0.11660048054944001,0.6235741907200317,39.26818886199736
99,186.13,0.10043488292393325,0.638911103555748,39.06897635713185
100,186.52,0.08393295400113843,0.6539472631962706,38.87024839016689
101,186.9,0.06838620107988204,0.6688870048092854,38.67676949265863
102,187.28,0.05303250865455465,0.6838410248533162,38.48378615345943
103,187.68,0.03553881340399328,0.6689223563789631,38.28064579640764
104,188.07,0.018482460534695946,0.6543766546164689,48.08258394828215
105,188.5,0.04173061516633602,0.6380434950181807,47.86359212009525
106,188.91,0.05957406551902276,0.6226250061064426,47.655038478050884
107,189.31,0.07659680530639155,0.6072439338970625,47.451116619270074
108,189.72,0.0940236995625631,0.5915378834464995,47.24245551067902
109,190.12,0.11157826042711978,0.576438672596968,47.038253399691655
110,190.52,0.12943298378133444,0.5616714723939187,46.83468178218909
111,190.92,0.14751498967441146,0.5469734827110003,46.630700668643634
112,191.33,0.1663453225544222,0.5322252027956044,46.42212502828261
113,191.73,0.184910085229306,0.5181105907247515,46.21924588100213
114,192.14,0.2037900498762035,0.5033894551357759,46.010630620002985
115,192.55,0.22222867469747082,0.48830932675603345,45.801790901387626
116,192.98,0.24106996216128562,0.4721900789727324,45.58290956862723
117,193.39,0.2585884765581245,0.4565398913306823,45.37424073778456
118,193.83,0.27801986224440356,0.4402263450192784,45.15065126927038
119,194.24,0.29581489036495784,0.42476016507151,44.942018934255806
120,194.65,0.3130233251631795,0.40892969937451673,44.73340990621592
121,195.05,0.3298178693797274,0.39359163934145486,44.53039769637899
122,195.46,0.34753260602799924,0.37824762592481953,44.322608903616086
123,195.87,0.36473569182991245,0.3626967008508838,44.11539795384034
124,196.27,0.3811771782292039,0.34744623536285346,43.91389087306562
125,196.68,0.39847188398919,0.332085653792416,43.70733180088455
126,197.08,0.4147056248308194,0.31683148532046024,43.50643076892726
127,197.5,0.43171996529885076,0.3007543150146528,43.29527569526784
128,197.91,0.4485688152532578,0.2850779570169569,43.088519765865115
129,198.31,0.47369015330896713,0.2906379361057234,52.886806664008795
130,198.74,0.5007915969516907,0.2959688519008242,52.67063098812908
131,199.17,0.5280173627453206,0.30108971352768443,52.45421131329069
132,199.58,0.5539269078137157,0.3059427446188108,52.24813612276373
133,200.06,0.584140233363179,0.3117834931236217,52.00718422575049
134,200.46,0.6089623071618778,0.3175881875188468,61.806390978239456
135,200.84,0.6325200539094509,0.3231705775771857,61.61561355229296
136,201.24,0.6571364454647346,0.3294649557551848,61.41478668987306
137,201.64,0.6815900193233024,0.335962048368685,61.21427209350844
138,202.04,0.7057635808860483,0.34275965474086606,61.01436154178526
139,202.45,0.7304282164811401,0.3501898162802396,60.808888456982395
140,202.87,0.7558008694312058,0.35752119860874587,60.59858449514705
141,203.27,0.7802333895738668,0.3640296143905029,60.39814091551014
142,203.68,0.8049274955241986,0.3711182787662447,60.19333411932312
143,204.1,0.8304218238199285,0.3780116298761198,59.98346230450442
144,204.52,0.8558456397272488,0.38524833459550045,59.77314538065194
145,204.91,0.8792817189274958,0.39253732372029976,59.57727310282169
146,205.3,0.9028373219581064,0.3993906769418193,59.38190664519617
147,205.68,0.9257457342138513,0.4063133692441306,59.191165699976466
148,206.07,0.9493356601495312,0.41351076579714335,58.99483305009529
149,206.46,0.9730972393500525,0.4202386483403308,58.79883023579956
150,206.85,0.9965832229230425,0.4274117821007632,58.60301823721343
151,207.24,1.0201619154251973,0.4343807655689288,58.40727907203171
152,207.64,1.0443463047324193,0.4415769505601267,58.206401817441076
153,208.04,1.0685329648952366,0.44859764691914006,58.00592420312787
154,208.42,1.0914830891602312,0.45548341137896314,57.81508550904369
155,208.82,1.1158527256112167,0.46231571940210026,57.614215673855334
156,209.25,1.1423334879699651,0.46907322678126456,57.39826283314845
157,209.72,1.171355356388443,0.4759194090987521,57.16294160083053
158,210.12,1.1960131696044263,0.48198627293168145,66.96238807037915
159,210.52,1.220631639873925,0.4880175408850943,66.76208488938393
160,210.91,1.244625828736448,0.493795520152855,66.56703169550224
161,211.3,1.2685295870521105,0.4999543157483954,66.37162190866503
162,211.67,1.2910311489945765,0.5063503353230697,66.18582693331453
163,212.05,1.3142944607425195,0.5125160736672338,65.99520525365202
164,212.43,1.287516246111149,0.5186167911666489,65.80505689672756
165,212.82,1.2637731081194055,0.5247812297186891,65.61036419217974
166,213.24,1.238146395789826,0.5309709142420894,65.40134523368822
167,213.61,1.2157333993525847,0.5369174153115817,65.21693909414448
168,214.04,1.189874463057088,0.544242551216006,65.00256875874973
169,214.42,1.1674004818030008,0.5511766518311145,64.81373162115142
170,214.81,1.144614028330795,0.5587964092347087,64.61988737131523
171,215.21,1.121031255912389,0.5662970618369811,64.42094210170963
172,215.59,1.0984521261306823,0.5730686445099992,64.23202821243233
173,215.98,1.0751638976435454,0.5798380955580192,64.03805247614412
174,216.35,1.0543037654940937,0.5882676443196883,73.85402421351172
175,216.72,1.0336726301133354,0.5968732795213401,73.67041896010507
176,217.09,1.012801794405024,0.6052624592241979,73.4864677375331
177,217.47,0.9910682270008115,0.61359313615862,73.29712136635594
178,217.86,0.9687458841582408,0.6221141950596952,73.1028040703579
179,218.24,0.9469541877671321,0.6302161916668744,72.91386653354434
180,218.62,0.9250569141932593,0.637990001497057,72.72538874680724
181,218.98,0.904173263258749,0.6451799738420154,72.54669909553292
182,219.39,0.8802568196172935,0.6530854903635424,72.3433555908943
183,219.78,0.8574303796306733,0.6604679471490525,72.14994550080158
184,220.16,0.8354727984960361,0.6680443873812277,71.96173959902883
185,220.53,0.8142884469057522,0.675778832087568,71.7783556026545
186,220.89,0.7939571419344672,0.6835718161073299,71.60036825956436
187,221.26,0.773439363388231,0.692050990026319,71.41763103449999
188,221.64,0.7521776543549996,0.7003926721395841,71.23026420915595
189,222.0,0.7319617314677538,0.7081916799067488,71.05275210804774
190,222.37,0.711167114203311,0.7163744927438146,70.86974287613408
191,222.75,0.6901103699915295,0.725109822620097,70.68204874781625
192,223.12,0.6698734655399338,0.7339412720354208,70.49937360870554
193,223.55,0.6462222069864361,0.7440227513330959,70.28710432969885
194,223.98,0.6226199019337934,0.7144765335850449,70.07449988649451
195,224.36,0.6019474449006331,0.7050057263035141,69.88603350214623
196,224.78,0.5793439520897549,0.6941541217300341,69.67742299606239
197,225.4,0.5457595590567317,0.678241642798528,69.36895981739232
198,225.89,0.5191310356375254,0.6659354458629951,69.12573813488805
199,226.25,0.49942156337226,0.6572228447739356,68.9475317557075
200,226.62,0.4791788978620089,0.6482014969386592,68.76421672896764
201,227.0,0.4584940861434141,0.6389461312227834,68.57641219428245
202,227.36,0.43930878505561816,0.6298349336958083,68.39902261773473
203,227.72,0.4198149338703069,0.6211786481732512,68.22189066577064
204,228.09,0.40004830364526534,0.6118088056313151,68.03935824161451
205,228.45,0.3806641965825945,0.6029463792590477,67.86199838717147
206,228.82,0.36088770965151956,0.5935714411529434,67.67940854594687
207,229.19,0.34084924546673495,0.584482727706903,67.49671253052
208,229.57,0.3203431426041469,0.5750441466914883,67.30903483585486
209,229.96,0.29945748113728,0.5653014770079776,67.11688453995504
210,230.39,0.2759836959423853,0.5549690481401302,66.904549652026
211,230.74,0.25682141245570084,0.5464709182264234,66.73120260194524
212,231.09,0.23733919017320107,0.5382704013011259,66.5574757919528
213,231.45,0.21703515975202034,0.5302304359892137,66.3788759242852
214,231.8,0.19742490015380335,0.5222170517782647,66.20519088468733
215,232.15,0.1776905670563042,0.5145474227161596,66.03201242332668
216,232.5,0.1582436697393227,0.5065511613558689,65.85906801760068
217,232.86,0.13847132934551556,0.49783783040381663,65.68059919478932
218,233.22,0.11878533042954716,0.48914562060091943,65.50255613379223
219,233.57,0.09958983295949277,0.4808325687130389,65.32966905079486
220,233.94,0.0792016707473229,0.47212492103059667,65.14675996741435
221,234.31,0.05839676484954794,0.46379445272416114,64.96326502574313
222,234.66,0.03894590572502453,0.4555888625351908,64.78965355713719
223,235.01,0.019346648180773744,0.4474784181348738,64.61571617640055
224,235.37,0.042562460282447895,0.43925468979197213,64.43682234990082
225,235.71,0.06149870662761591,0.4311560225295416,64.2675972346775
226,236.06,0.08068082093744795,0.42240371149872963,64.09333177517532
227,236.41,0.09986067329873999,0.4136619451463234,63.919110654054826
228,236.77,0.11977377853099794,0.40505228315850755,63.74039160944304
229,237.12,0.13898170427955012,0.39634426879441664,63.56616721336455
230,237.47,0.15843812577592636,0.3878685864720322,63.3916747052731
231,237.83,0.17860167634135235,0.37934190283104907,63.21217435783342
232,238.18,0.19831909278791804,0.3711138279779708,63.0373760115478
233,238.53,0.2178254603605131,0.36243601204428105,62.86202187154199
234,238.88,0.23755278694247237,0.35388930263198926,62.686176309679524
235,239.24,0.25799613961937046,0.3452361387033841,62.50510848287041
236,239.6,0.2782537328286706,0.3362663538560009,62.32379972646846
237,239.99,0.30048061299294276,0.32688248209003223,62.127278546498154
238,240.4,0.32353581830672884,0.3165543117294641,61.92048591900992
239,240.78,0.3449095716855363,0.3068350776766807,61.72831739239188
240,241.14,0.36503198035370177,0.2974999345741935,61.54635445699678
241,241.51,0.38562694887163285,0.2877646730346465,61.3592114637427
242,241.87,0.4059015219471956,0.2785216340399596,61.17693401521026
243,242.21,0.42495436642413054,0.26975685212016615,61.005056212191874
244,242.57,0.4453907847965877,0.26068910199876416,60.82268950163809
245,242.92,0.46546171526457036,0.25205384049484153,60.6451318122698
246,243.29,0.4867657843234685,0.24317244379410533,60.457845870159204
247,243.65,0.5072249414051363,0.23414965191979867,60.27553132453951
248,244.02,0.5283036293572885,0.22511093619447808,60.08869331323378
249,244.39,0.5495851850558002,0.21651868864085128,59.902390340765706
250,244.76,0.5711182778641383,0.2082604108104021,59.71601143751529
251,245.14,0.5931646324565087,0.1994688270624561,59.523969991151
252,245.5,0.6025545957343337,0.18318537930501208,69.3420359893322
253,245.87,0.6115376631244335,0.1662052119925294,69.15483060587825
254,246.23,0.6207709685151586,0.14975504791379238,68.97221035242507
255,246.62,0.6310935830676635,0.13196940939754456,68.77397559194347
256,247.0,0.6409117221107326,0.11450813544087161,68.5805024747419
257,247.37,0.6499024188928135,0.0973538864277936,68.39224739842327
258,247.73,0.6587385823757681,0.08060708596629455,68.20859003567948
259,248.1,0.6682350104615725,0.06352267377169267,68.01983809031073
260,248.46,0.6772423459792355,0.046857532114886837,67.83636037836531
261,248.82,0.6858911388980485,0.030100345830059532,67.65296892495776
262,249.2,0.6952628169133485,0.012426901832396054,67.45905161800353
263,249.55,0.703363060793254,0.03525836658820551,67.28041869751328
264,249.92,0.7117242563309472,0.052624807232313844,67.0919587996751
265,250.32,0.7202992608269851,0.07146639847583693,66.88855160760625
266,250.7,0.728891068920046,0.089182862011513,66.6957086973568
267,251.08,0.7371502404492818,0.1070847140626402,66.50228153991358
268,251.45,0.7452537702962151,0.1244997326570532,66.3139424554855
269,251.82,0.7540848652946089,0.14179287457993525,66.12513579744201
270,252.18,0.7632826353243447,0.15846799383299867,65.94125257403142
271,252.55,0.772177057347776,0.17575684575275913,65.7523624722638
272,252.91,0.7809060746041935,0.19261647999111903,65.56822048999011
273,253.28,0.790296274043,0.2097761308958052,65.37921848458925
274,253.65,0.8001188505393151,0.22672827186708724,65.19063224655457
275,254.04,0.8100836189134009,0.2447526442729405,64.9916629991551
276,254.42,0.8194768331470892,0.26234461056121344,64.79819169079677
277,254.78,0.8290168097698497,0.27872781826959153,64.6153851229221
278,255.16,0.8388175917448556,0.2961825934647188,64.42198268772292
279,255.52,0.8484716397364981,0.3126235157574258,64.23861793528286
280,255.89,0.8587839449758652,0.329359859319982,64.05033041885427
281,256.26,0.8695826972182791,0.345979684049232,63.86171533493352
282,256.62,0.8805430515447604,0.3620698681533697,63.67768674658286
283,256.99,0.8917169603902891,0.37861088493638967,63.488721952807694
284,257.36,0.9022712679928784,0.39528100864049387,63.30032543238777
285,257.72,0.9118648787854977,0.4117460975440247,63.11693558723711
286,258.09,0.9223551584754264,0.428540974106176,62.92794803923444
287,258.46,0.9322262963398791,0.44551389439868594,62.739146820678464
288,258.83,0.9423305155224695,0.4624831824310426,62.54991510737551
289,259.19,0.9518082968883005,0.4792077555702541,62.365220222983076
290,259.56,0.9611882134475417,0.4965541204202519,62.17513043235311
291,259.92,0.9699128102238782,0.5135114708992099,61.99041289548779
292,260.38,0.9807173959377099,0.5352264316384698,61.75468734334419
293,260.89,0.9927392256813278,0.5593648570210699,61.49288894883851
294,261.3,0.989946665555657,0.5799736682780119,71.28242357286337
295,261.67,0.9880509279368632,0.598596012974155,71.09260307424644
296,262.04,0.9867918559936028,0.6172639659942376,70.90268479305568
