,t,x,y,energy,sight
0,203.444,0.031259706538981365,0.8453947065369825,49.92685388531232,105.47308131958712
1,203.514,0.028750323345012634,0.8426251858393599,49.853714533066466,105.47308131958712
2,203.588,0.026038236191800217,0.839745323221028,49.77636348285335,105.47308131958712
3,203.664,0.0231697606016686,0.8368810103811052,49.69698014260491,105.47308131958712
4,203.738,0.02028964564397806,0.834156408427221,49.61957294064977,105.47308131958712
5,203.808,0.017630856198156426,0.8315350994792737,49.5464565697357,105.47308131958712
6,203.876,0.014988948347877323,0.8290277132230116,49.47533111065466,105.47308131958712
7,203.946,0.019004251478720542,0.8264642284475953,49.40208125876554,105.47308131958712
8,204.012,0.02164573967420538,0.8241265982475865,49.33309826545726,105.47308131958712
9,204.076,0.024151511266641404,0.8217902048333627,49.26616987782779,105.47308131958712
10,204.144,0.026816884432183337,0.819327752823706,49.19513136363515,105.47308131958712
11,204.208,0.029261883707479158,0.8169620219386093,49.12835568087223,105.47308131958712
12,204.28,0.03205145672174489,0.8143562644210535,49.05329795682202,105.47308131958712
13,204.344,0.03450211757633704,0.8119920552345723,48.98650298228831,105.47308131958712
14,204.412,0.037108744621251674,0.8094861043228088,48.91554714663494,105.47308131958712
15,204.476,0.039635106671106826,0.8071877873562251,48.84868691762962,105.47308131958712
16,204.544,0.04238571152060852,0.8047944511402921,48.77753755446055,105.47308131958712
17,204.614,0.045205694959097195,0.802305904360219,48.70424634006621,105.47308131958712
18,204.682,0.048019527394939206,0.7999493476443993,48.632942034617244,105.47308131958712
19,204.752,0.05088914059381222,0.7975184768039488,48.559651976295065,105.47308131958712
20,204.82,0.05369486997941229,0.7951808371893239,48.48846508748452,105.47308131958712
21,204.886,0.05648801514838332,0.7929844986293156,48.41931615201872,105.47308131958712
22,204.954,0.05944070795373295,0.7908062781806658,48.348018799342356,105.47308131958712
23,205.02,0.06224718426921522,0.78862720518982,48.27887066955066,105.47308131958712
24,205.088,0.06520857160788791,0.7864734006835772,48.20762076503546,105.47308131958712
25,205.158,0.06829539766734888,0.7843386125587166,48.13438010613423,105.47308131958712
26,205.23,0.07213427066926352,0.7847451490269286,48.05904685697868,105.47308131958712
27,205.3,0.0758437832791042,0.7851835857726754,47.98591995624239,105.47308131958712
28,205.374,0.07977428991718842,0.7856879548338246,47.90852506392244,105.47308131958712
29,205.444,0.08348501749413009,0.7861369099340692,47.83538244884122,105.47308131958712
30,205.52,0.08748256336091044,0.7867274651467641,47.75608079189145,105.47308131958712
31,205.588,0.09107144350377502,0.7872236332843092,47.68507902722797,105.47308131958712
32,205.66,0.09486705947326102,0.7876524533031694,47.610005466820674,105.47308131958712
33,205.726,0.09833747345672308,0.7881441144308234,47.541164873834795,105.47308131958712
34,205.796,0.10200429846331564,0.788655121316189,47.46824963461245,105.47308131958712
35,205.862,0.10549080572519268,0.7890326866527506,47.39939737279592,105.47308131958712
36,205.932,0.10920874909119835,0.789402811989369,47.326264146237634,105.47308131958712
37,206.0,0.112837960085814,0.7897400384460675,47.25512267553794,105.47308131958712
38,206.066,0.1163461330874391,0.7901474844468442,47.18611129077193,105.47308131958712
39,206.138,0.1201872586263962,0.7905799110122865,47.110745717155474,105.47308131958712
40,206.204,0.1236982934227723,0.7910282052792528,47.04168451470528,105.47308131958712
41,206.276,0.12751007749426072,0.7915649659082773,46.96642133434455,105.47308131958712
42,206.34,0.13089990204320842,0.791986116193816,46.89955781509923,105.47308131958712
43,206.408,0.13449872868065627,0.7924099819490313,46.82855165950943,105.47308131958712
44,206.474,0.13798364714332567,0.7928607087195855,46.75965425404398,105.47308131958712
45,206.544,0.14170856537203838,0.7932278788236439,46.68647847025171,105.47308131958712
46,206.616,0.14551895443412308,0.7936734445439508,46.61129874096434,105.47308131958712
47,206.682,0.14902428870478313,0.7941001511020783,46.54229083867198,105.47308131958712
48,206.75,0.1526285635302522,0.7946307321075122,46.471160416023864,105.47308131958712
49,206.818,0.15621415242473985,0.7952625165451406,46.40004467898291,105.47308131958712
50,206.884,0.15973588016549112,0.7955536499548868,46.33102058126669,105.47308131958712
51,206.95,0.16325760790624239,0.7958447833646329,46.261996483550476,105.47308131958712
52,207.018,0.16688605466944062,0.7961447389989169,46.19088074650952,105.47308131958712
53,207.084,0.1704077824101919,0.7964358724086631,46.121856648793305,105.47308131958712
54,207.154,0.17414294819583714,0.7967446502674848,46.04864927242762,105.47308131958712
55,207.222,0.17777139495903538,0.7970446059017686,45.97753353538666,105.47308131958712
56,207.29,0.18140471991311075,0.7974507882014993,45.90632093594193,105.47308131958712
57,207.354,0.18482282182192128,0.7977376617642118,45.83936632561644,105.47308131958712
58,207.422,0.18845166272206268,0.7979547218365263,45.76828577020334,105.47308131958712
59,207.488,0.19197428969934374,0.7981498775151759,45.699298230695604,105.47308131958712
60,207.556,0.19561273597969714,0.7984327445784649,45.628127445164935,105.47308131958712
61,207.626,0.19937491682737557,0.7987213856755621,45.554757956272205,105.47308131958712
62,207.694,0.20303545039631196,0.7989945384930398,45.48345094301585,105.47308131958712
63,207.766,0.20692278123100274,0.7993409749937335,45.40784634457818,105.47308131958712
64,207.83,0.2103725591248101,0.799695273499798,45.3406497847218,105.47308131958712
65,207.898,0.2140393229833358,0.8000899431622797,45.26923248792917,105.47308131958712
66,207.966,0.2177250245253725,0.8003877994253508,45.19775263282979,105.47308131958712
67,208.038,0.22163544899132392,0.8006243942935285,45.12205307154607,105.47308131958712
68,208.106,0.22531354474552642,0.8008539280987602,45.050653002298915,105.47308131958712
69,208.172,0.2288785402599553,0.8011517057758549,44.981349420501395,105.47308131958712
70,208.24,0.232549938071616,0.8015539894719957,44.90989737848035,105.47308131958712
71,208.308,0.23623173987416993,0.8018687631899442,44.83843342367735,105.47308131958712
72,208.376,0.23992833375675798,0.8020818498809505,44.76692148571061,105.47308131958712
73,208.442,0.2435339954950289,0.8022399127431991,44.69741493243597,105.47308131958712
74,208.51,0.24726212541755627,0.8023802470485265,44.62572353949466,105.47308131958712
75,208.578,0.250992825453012,0.8024139322648697,44.554031622474845,105.47308131958712
76,208.648,0.25483447991045816,0.8025175097613954,44.48021532789024,105.47308131958712
77,208.716,0.2585769695427516,0.8026135098397271,44.40844105189301,105.47308131958712
78,208.782,0.26220864040936265,0.8027547347254389,44.33877263539349,105.47308131958712
79,208.85,0.26595227308847313,0.8027976467931565,44.26699734872782,105.47308131958712
80,208.916,0.26956850932929655,0.8027456282207108,44.19744288665624,105.47308131958712
81,208.992,0.2737231808128785,0.8027484165097475,44.11741328863796,105.47308131958712
82,209.06,0.2774500556287097,0.8026769663598753,44.04574244328419,105.47308131958712
83,209.126,0.28107494481336215,0.8025031871007637,43.97610835257567,105.47308131958712
84,209.196,0.28493928544972613,0.8023806538674949,43.902143371160044,105.47308131958712
85,209.264,0.2886927034748018,0.8022721913188215,43.830297004783056,105.47308131958712
86,209.332,0.2924332940639719,0.802179110352794,43.75853535069349,105.47308131958712
87,209.402,0.2962780539729779,0.802147134382769,43.68470726501074,105.47308131958712
88,209.468,0.2999011423583145,0.8021678671854502,43.615110963913864,105.47308131958712
89,209.536,0.3036270379548784,0.8022384868939909,43.543446485721454,105.47308131958712
90,209.606,0.30745578800158185,0.8023418661774626,43.4697127835354,105.47308131958712
91,209.674,0.31118681385033214,0.802550864701639,43.397982320430714,105.47308131958712
92,209.742,0.31490218770865547,0.8028645228602518,43.32630488007571,105.47308131958712
93,209.816,0.3189620567679172,0.8031311966075627,43.248232338692326,105.47308131958712
94,209.886,0.32281237707255717,0.8032691483166031,43.17435370614551,105.47308131958712
95,209.952,0.3264466680461342,0.8034226992859337,43.104665337005436,105.47308131958712
96,210.02,0.33020686449824843,0.803589117043259,43.032762058839765,105.47308131958712
97,210.088,0.3339594778868261,0.8036864063232922,42.96092279962801,105.47308131958712
98,210.156,0.3377097665245926,0.8037574057549147,42.8891021879467,105.47308131958712
99,210.224,0.34146304999953375,0.8038087621882894,42.81726446159733,105.47308131958712
100,210.294,0.34533118259679113,0.8038933707423229,42.74328172028102,105.47308131958712
101,210.362,0.3490860900122098,0.8040497429791473,42.671415019645856,105.47308131958712
102,210.43,0.3528491688926665,0.8040961369481266,42.59951502101761,105.47308131958712
103,210.496,0.35649744949688705,0.8040862940783324,42.52975778439239,105.47308131958712
104,210.566,0.36034816536040426,0.8040139965502332,42.455888088310346,105.47308131958712
105,210.638,0.36429356707001304,0.8039671801476478,42.38000866071294,105.47308131958712
106,210.704,0.3678925061905046,0.8038834136457472,42.31056105638795,105.47308131958712
107,210.772,0.37160279640967425,0.8038683706011831,42.23900054028428,105.47308131958712
108,210.838,0.37518849298756485,0.8038695372950653,42.1696439251904,105.47308131958712
109,210.906,0.3788860366216468,0.8038016128216758,42.09816118983021,105.47308131958712
110,210.972,0.3824896447197343,0.8038436989643222,42.02868836941328,105.47308131958712
111,211.038,0.3861062110897303,0.8039011875773727,41.95913126478119,105.47308131958712
112,211.106,0.3898245948028245,0.8039706940701905,41.88751498821239,105.47308131958712
113,211.172,0.3934411930553918,0.8039714068749996,41.81796060316577,105.47308131958712
114,211.24,0.3971721680325942,0.8040650196994722,41.74626038476249,105.47308131958712
115,211.316,0.40136077048006963,0.8041059213653279,41.66601235649976,105.47308131958712
116,211.392,0.4055539480179296,0.8040683122708522,41.58573524631889,105.47308131958712
117,211.47,0.40984449274325174,0.8040616099754299,41.503429724287585,105.47308131958712
118,211.552,0.4143459481217945,0.8039934662641258,41.41695849124263,105.47308131958712
119,211.632,0.41873049328797585,0.803996313452761,41.332645086225554,105.47308131958712
120,211.706,0.42279111472751996,0.8041116974944037,41.254613232570115,105.47308131958712
121,211.776,0.4266322992152739,0.8041584434912252,41.180807060204764,105.47308131958712
122,211.844,0.43037064501706956,0.8042769831957509,41.10905515843164,105.47308131958712
123,211.908,0.43388381560202005,0.8044298113175987,41.041547754314934,105.47308131958712
124,211.978,0.4377352056196231,0.8046709357283263,40.967629826633946,105.47308131958712
125,212.044,0.44135649306359903,0.8048278067608152,40.89802369574921,105.47308131958712
126,212.112,0.44509733086412107,0.8050651696018694,40.826219723199124,105.47308131958712
127,212.178,0.4487341760759942,0.8052415301900122,40.75650840706646,105.47308131958712
128,212.25,0.45270544381704747,0.8055295081228302,40.68039847706918,105.47308131958712
129,212.316,0.4563614433662172,0.8057205582313924,40.610559998340854,105.47308131958712
130,212.384,0.4601399301154291,0.8059199516848865,40.538529572189596,105.47308131958712
131,212.45,0.4637996402178044,0.8061178011833399,40.468665069381835,105.47308131958712
132,212.518,0.4675596097671371,0.8063907418877676,40.396723482139905,105.47308131958712
133,212.586,0.47131169423610564,0.8065594805145343,40.32487140704605,105.47308131958712
134,212.66,0.47385230235699244,0.8097612221317991,40.246679442973324,105.47308131958712
135,212.728,0.47618691522483436,0.8127033630773939,40.174827367879466,105.47308131958712
136,212.794,0.47845286300832796,0.8155589704657652,40.1050885891119,105.47308131958712
137,212.86,0.4807498856945515,0.8183733422533418,40.03543071950728,105.47308131958712
138,212.926,0.4831038866255081,0.8211238330435368,39.965852689795916,105.47308131958712
139,212.994,0.4854422540287081,0.8240094901694187,39.89426760686953,105.47308131958712
140,213.064,0.48787597355092027,0.8269566420893838,39.8205851890065,105.47308131958712
141,213.132,0.4903024525189991,0.8297535161648903,39.74907317109361,105.47308131958712
142,213.198,0.49257721910767244,0.8325400482027664,39.679643401466,105.47308131958712
143,213.266,0.4949371900270082,0.8353759677677489,39.608216578306816,105.47308131958712
144,213.334,0.4973830755455556,0.8381529450514835,39.53671869119208,105.47308131958712
145,213.402,0.49992302108126074,0.8408615276136644,39.46513984368098,105.47308131958712
146,213.472,0.5026125972415671,0.8435917646685299,39.39139110742707,105.47308131958712
147,213.542,0.5053112840773017,0.8463159739405122,39.31762883803384,105.47308131958712
148,213.612,0.507939338090216,0.8490939368659399,39.243933822483825,105.47308131958712
149,213.682,0.5105134437243415,0.8519124492295311,39.17028379618072,105.47308131958712
150,213.75,0.5130186244757501,0.854664389069646,39.09865212713351,105.47308131958712
151,213.82,0.5155040127269631,0.8575620486164555,39.024999121681326,105.47308131958712
152,213.886,0.5178599909549436,0.8602751283368606,38.955594175325054,105.47308131958712
153,213.954,0.5202296538555105,0.8631052763710085,38.88415596008359,105.47308131958712
154,214.02,0.5225809885826556,0.8658195131449979,38.81476489168102,105.47308131958712
155,214.092,0.5250869594018506,0.8688483949928045,38.738978391863746,105.47308131958712
156,214.16,0.5275028350154419,0.8716538078527309,38.667469406259734,105.47308131958712
157,214.228,0.5299623443778736,0.8744359554889798,38.5958890170897,105.47308131958712
158,214.298,0.532440184830355,0.8773273133980739,38.52229807115112,105.47308131958712
159,214.366,0.5348990652875203,0.8800852318031017,38.45083631601975,105.47308131958712
160,214.434,0.5373441571876214,0.8828557842001878,38.379372631423166,105.47308131958712
161,214.502,0.5397152656203585,0.8857025912592087,38.30784665102219,105.47308131958712
162,214.568,0.5420266088527013,0.8884482000881521,38.23846911424132,105.47308131958712
163,214.64,0.5444652611747188,0.8914945130120151,38.16286805136902,105.47308131958712
164,214.71,0.5467966437349576,0.8944810351098031,38.08939925278868,105.47308131958712
165,214.776,0.5489629783453371,0.8973405871216199,38.020031197711354,105.47308131958712
166,214.844,0.5511481579093186,0.9003349492224875,37.94849248223646,105.47308131958712
167,214.91,0.5533190186162872,0.9032031902998291,37.87906260651932,105.47308131958712
168,214.98,0.5556814998370687,0.9062134474388944,37.8053515132828,105.47308131958712
169,215.048,0.558073315691506,0.9090720866498915,37.733682470610574,105.47308131958712
170,215.118,0.5604494499887969,0.9120999160880825,37.65982896040376,105.47308131958712
171,215.186,0.5627673928998251,0.9150297966863802,37.58810464192419,105.47308131958712
172,215.254,0.5651514162283262,0.9178862881592215,37.51647812646626,105.47308131958712
173,215.322,0.5675600766290303,0.9207450427183328,37.444739197217395,105.47308131958712
174,215.39,0.5699734507178592,0.9236215481964812,37.372893898447224,105.47308131958712
175,215.462,0.5726131596429459,0.926593977302757,37.29682458715874,105.47308131958712
176,215.534,0.5752533312709088,0.9295821979972333,37.22067765827981,105.47308131958712
177,215.602,0.577660080509091,0.9324679321665339,37.14881426023752,105.47308131958712
178,215.668,0.579959718942468,0.9352951807985649,37.079081926551886,105.47308131958712
179,215.74,0.5823866449092494,0.9384547486408173,37.00295677957255,105.47308131958712
180,215.808,0.584622444920681,0.9414853016940714,36.931039663254474,105.47308131958712
181,215.876,0.5869112361992456,0.9444909486515893,36.85904668144767,105.47308131958712
182,215.942,0.5891428464190642,0.9474025044401116,36.789160693506766,105.47308131958712
183,216.008,0.5914128420442192,0.9503000603456364,36.7191950510923,105.47308131958712
184,216.074,0.5936000683060574,0.953275592431363,36.64915212777604,105.47308131958712
185,216.142,0.5958227919625851,0.9563735554816256,36.57693538195253,105.47308131958712
186,216.208,0.5978762221934707,0.9594323698859195,36.506948700871476,105.47308131958712
187,216.282,0.6002407427902454,0.9628403304447228,36.42836869359362,105.47308131958712
188,216.352,0.6025047988877635,0.9660545424459903,36.3539859832658,105.47308131958712
189,216.424,0.6048754541696162,0.9693234753029001,36.277515320292025,105.47308131958712
190,216.496,0.6073314875836385,0.9725484697850199,36.200944398760285,105.47308131958712
191,216.568,0.6098269153838165,0.9757402627629576,36.12438768018015,105.47308131958712
192,216.64,0.6124068616296001,0.9788701729080074,36.047801156475686,105.47308131958712
193,216.71,0.6148531889233138,0.9819525210368389,35.97339544008035,105.47308131958712
194,216.778,0.6173102633732315,0.9848999048480245,35.901022744486,105.47308131958712
195,216.846,0.6197226342267086,0.9808493830854561,35.828567195437905,105.47308131958712
196,216.912,0.6219699620866258,0.9778699542213996,35.75827453559401,105.47308131958712
197,216.98,0.6243223184310388,0.9748285631922526,35.685852392677695,105.47308131958712
198,217.05,0.626750640001558,0.9717114760017065,35.61134313414889,105.47308131958712
199,217.116,0.6290575648209511,0.9687933967953162,35.54112810667277,105.47308131958712
200,217.184,0.6314876116406766,0.9658461341211829,35.4688664097992,105.47308131958712
201,217.252,0.6339492497924413,0.962947224304501,35.39671229903286,105.47308131958712
202,217.322,0.6363998288315103,0.9598815924848136,35.32237331241049,105.47308131958712
203,217.39,0.6386852522635535,0.9568368327717895,35.25019365132082,105.47308131958712
204,217.458,0.6408719609409504,0.9537267271926806,35.17804702110377,105.47308131958712
205,217.526,0.6430335629675736,0.9506100166156397,35.1059577295086,105.47308131958712
206,217.598,0.645224192757783,0.947231068826029,35.02955831292372,105.47308131958712
207,217.67,0.6473263418646349,0.9437845712330939,34.95309442792506,105.47308131958712
208,217.736,0.6492034303564589,0.9405780722764463,34.8829069373451,105.47308131958712
209,217.808,0.6511929249639818,0.9370631944162404,34.80643110275983,105.47308131958712
210,217.874,0.6530373495328756,0.933870118811558,34.7364229664547,105.47308131958712
211,217.944,0.6549249987996476,0.9304373108888919,34.66212971835163,105.47308131958712
212,218.01,0.6567857736903087,0.9272645529473355,34.59218132537848,105.47308131958712
213,218.076,0.6586818527131431,0.9240933425569544,34.52212632491624,105.47308131958712
214,218.144,0.6607012371052239,0.9208561694660794,34.44989336363082,105.47308131958712
215,218.212,0.662768731067063,0.9176290361478886,34.37755017829542,105.47308131958712
216,218.284,0.664889374763294,0.9141481639839881,34.300836836881395,105.47308131958712
217,218.35,0.6669111339179887,0.9110189483808171,34.230585352155664,105.47308131958712
218,218.42,0.669101713811705,0.9077424032787199,34.15613982050511,105.47308131958712
219,218.486,0.6712512549532763,0.9046938516908757,34.08585855469942,105.47308131958712
220,218.554,0.6735020628211974,0.9015574022517236,34.01333689871703,105.47308131958712
221,218.622,0.6758118581304601,0.8984618044910759,33.940803285537314,105.47308131958712
222,218.694,0.6781833320728154,0.8951206224604688,33.86395386237878,105.47308131958712
223,218.76,0.6802878575575149,0.8920259713438614,33.79359405990533,105.47308131958712
224,218.826,0.6823377737128737,0.888883116214793,33.72317123587644,105.47308131958712
225,218.892,0.6843829637499341,0.885727674669534,33.65269736642642,105.47308131958712
226,218.96,0.6865564979015532,0.8825351120185092,33.58016472500353,105.47308131958712
227,219.026,0.688637615741928,0.8794088491895817,33.50972069566787,105.47308131958712
228,219.092,0.6906841408235056,0.8762640687802744,33.43929939470228,105.47308131958712
229,219.16,0.6927369956815734,0.8729986569640836,33.36679956833755,105.47308131958712
