,t,x,y,energy,sight
0,235.472,0.08353709736577448,0.7011735476804271,49.926450805402126,99.75303383383127
1,235.548,0.0797190421914146,0.7002739408778217,49.850804589955494,99.75303383383127
2,235.622,0.07599855740954946,0.6994420132941981,49.777193971010355,99.75303383383127
3,235.694,0.07238686691945866,0.6985935722435564,49.70556846266225,99.75303383383127
4,235.768,0.06869411407551765,0.6976309091999897,49.6319334861609,99.75303383383127
5,235.84,0.0650845768079071,0.696741692925257,49.56026032378059,99.75303383383127
6,235.916,0.061276471043972804,0.6958553727938919,49.484695496307864,99.75303383383127
7,235.99,0.05756661458316078,0.6949216359902396,49.411000423927156,99.75303383383127
8,236.064,0.0538742295322695,0.6938700281001607,49.33721793898138,99.75303383383127
9,236.136,0.050256705622382214,0.6929059938382642,49.26537633124927,99.75303383383127
10,236.208,0.04664790007388072,0.6919548153336902,49.193609737146936,99.75303383383127
11,236.286,0.042760895043643145,0.6908434633288387,49.1158644932055,99.75303383383127
12,236.36,0.03908302396473448,0.6898156686026307,49.04221279028226,99.75303383383127
13,236.434,0.035385320894958223,0.6887979790098795,48.96845606276957,99.75303383383127
14,236.506,0.03178905965017191,0.6878228776922003,48.896727483817365,99.75303383383127
15,236.578,0.028170627885752697,0.6868767860182625,48.824909567355455,99.75303383383127
16,236.652,0.02443637185462634,0.6859596296474172,48.75108855691958,99.75303383383127
17,236.726,0.020719412760737632,0.6849864863359796,48.677286737060214,99.75303383383127
18,236.804,0.01678451447137405,0.6839894911838653,48.59943602779975,99.75303383383127
19,236.878,0.013057955131616724,0.6829733156514879,48.525503743257886,99.75303383383127
20,236.952,0.021946768371888914,0.6820507533541665,48.451547269334824,99.75303383383127
21,237.024,0.025596142614202788,0.681064540731183,48.3794719950057,99.75303383383127
22,237.096,0.029250265691663106,0.6800704779567532,48.30735423962959,99.75303383383127
23,237.168,0.03291210449140316,0.6790992543023672,48.23522671573879,99.75303383383127
24,237.24,0.036582600760776865,0.6781847639228605,48.16313596577063,99.75303383383127
25,237.312,0.04024541328517993,0.6772357216205982,48.09103841411801,99.75303383383127
26,237.384,0.04389901722807875,0.6762745483059714,48.018978272938995,99.75303383383127
27,237.456,0.047583732410857775,0.6754114229700648,47.94687629482539,99.75303383383127
28,237.53,0.051403690517268175,0.6746056213880302,47.87267905049156,99.75303383383127
29,237.602,0.05508989626985039,0.6737172043464581,47.800530369247475,99.75303383383127
30,237.678,0.0589913618460424,0.6727899311169494,47.7243238990272,99.75303383383127
31,237.75,0.06266282517533228,0.671807395838377,47.65211821700507,99.75303383383127
32,237.822,0.06629488948793197,0.6707191193500719,47.57997051542599,99.75303383383127
33,237.894,0.06992527483404988,0.6696275941526739,47.50782712849729,99.75303383383127
34,237.966,0.07353175248546362,0.6684411046244041,47.43564720730664,99.75303383383127
35,238.042,0.07729518490979867,0.6671048776193922,47.359546561845775,99.75303383383127
36,238.114,0.0808666210317596,0.6659016758127996,47.287545637141996,99.75303383383127
37,238.184,0.0843127003407271,0.6646726197885358,47.21757858016497,99.75303383383127
38,238.26,0.08805928352224054,0.6633076863528978,47.141517225537726,99.75303383383127
39,238.334,0.09173958466210053,0.6620303199370495,47.067373410707084,99.75303383383127
40,238.406,0.09532414815837142,0.6607615102145783,46.99515598196823,99.75303383383127
41,238.514,0.10063692842385977,0.6587487382837897,46.88697363796322,99.75303383383127
42,238.584,0.10406331030208882,0.6573823761088888,46.81681408180744,99.75303383383127
43,238.656,0.10755584192589258,0.6559156593692914,46.74468934857684,99.75303383383127
44,238.726,0.11098710947414922,0.6545542111991,46.674512362384085,99.75303383383127
45,238.8,0.11464012216158725,0.6532075638566367,46.6003836011416,99.75303383383127
46,238.87,0.1180619974736096,0.6518359039099964,46.53023823865415,99.75303383383127
47,238.938,0.12142459295623827,0.650608077700077,46.46210646732174,99.75303383383127
48,239.012,0.12508014769274095,0.6493021622779259,46.38805134817802,99.75303383383127
49,239.08,0.12846945805309767,0.6482034937909551,46.320027196609914,99.75303383383127
50,239.15,0.1319709694878854,0.6470887236078159,46.24995780984836,99.75303383383127
51,239.22,0.13544523502056466,0.6458675135816464,46.179837465430516,99.75303383383127
52,239.29,0.1389177153478858,0.6446964598990972,46.109832440943826,99.75303383383127
53,239.358,0.1422499969618321,0.6434733289871017,46.041893184030194,99.75303383383127
54,239.426,0.14557971409981296,0.6422152508254882,45.97389124546403,99.75303383383127
55,239.494,0.1489136781736265,0.6409592271640534,45.90586851773739,99.75303383383127
56,239.566,0.15248512317344093,0.6397190119168595,45.83379086863631,99.75303383383127
57,239.646,0.1564565935146831,0.6383257673352742,45.75365315131443,99.75303383383127
58,239.72,0.16013618769108845,0.6370761235762872,45.67957123253154,99.75303383383127
59,239.794,0.16383929198712416,0.635854381052011,45.605403316632064,99.75303383383127
60,239.864,0.16737670239030233,0.6347828371874761,45.53519658084859,99.75303383383127
61,239.934,0.1708969128807984,0.6336368627370448,45.46495207519549,99.75303383383127
62,240.002,0.17431833131871657,0.6325510788637366,45.39675743584491,99.75303383383127
63,240.07,0.1777626033410587,0.6315704769057907,45.328616741038,99.75303383383127
64,240.142,0.18138720442628847,0.6305051791962082,45.25655667073427,99.75303383383127
65,240.216,0.18506943802663162,0.6293322450124639,45.18261215987951,99.75303383383127
66,240.288,0.18868565401786447,0.6283006047039579,45.1106635550611,99.75303383383127
67,240.358,0.1922092817497008,0.6272701817026534,45.0406164466207,99.75303383383127
68,240.428,0.19572750867279537,0.6261708311794145,44.97047472089766,99.75303383383127
69,240.498,0.19920515230652716,0.624979696088247,44.90039705131257,99.75303383383127
70,240.568,0.202701437271594,0.6238400133468038,44.83031061093838,99.75303383383127
71,240.638,0.2062133883909421,0.6227943533014739,44.760307578122394,99.75303383383127
72,240.708,0.20972520462266786,0.6217967493549017,44.690391282291,99.75303383383127
73,240.78,0.2133187984307591,0.6207273530276098,44.61851407179175,99.75303383383127
74,240.852,0.21695131356574845,0.619737829266632,44.546537381796284,99.75303383383127
75,240.922,0.21919025410469697,0.6168421526090981,44.4765600443007,99.75303383383127
76,240.992,0.22142919464364547,0.6139464759515642,44.40658270680511,99.75303383383127
77,241.06,0.22360416545290973,0.6111335329128169,44.338604721809396,99.75303383383127
78,241.128,0.225779136262174,0.6083205898740698,44.27062673681368,99.75303383383127
79,241.198,0.2280180768011225,0.6054249132165358,44.200649399318095,99.75303383383127
80,241.268,0.230257017340071,0.6025292365590019,44.13067206182251,99.75303383383127
81,241.338,0.2324959578790195,0.5996335599014679,44.06069472432692,99.75303383383127
82,241.41,0.23479886814765227,0.5966551496251473,43.988718034331455,99.75303383383127
83,241.484,0.2371657481459693,0.5935940057300401,43.91474199183612,99.75303383383127
84,241.558,0.2395326281442863,0.5905328618349327,43.84076594934078,99.75303383383127
85,241.634,0.24196347787228753,0.5873889843210388,43.764790554345566,99.75303383383127
86,241.704,0.24420241841123605,0.5844933076635048,43.69481321684998,99.75303383383127
87,241.782,0.24669723786892153,0.5812666965308242,43.616838469354896,99.75303383383127
88,241.852,0.24893617840787002,0.5783710198732903,43.54686113185931,99.75303383383127
89,241.922,0.25117511894681854,0.5754753432157564,43.47688379436372,99.75303383383127
90,241.992,0.25341405948576706,0.5725796665582225,43.406906456868136,99.75303383383127
91,242.06,0.2555890302950313,0.5697667235194752,43.33892847187242,99.75303383383127
92,242.132,0.25789194056366405,0.5667883132431546,43.266951781876955,99.75303383383127
93,242.204,0.2601948508322968,0.563809902966834,43.19497509188149,99.75303383383127
94,242.278,0.26256173083061385,0.5607487590717267,43.12099904938615,99.75303383383127
95,242.348,0.26480067136956237,0.5578530824141927,43.05102171189056,99.75303383383127
96,242.418,0.26697878563957084,0.5548978941394467,42.980974955984124,99.75303383383127
97,242.486,0.26913412620190463,0.5520588529452923,42.91294079178553,99.75303383383127
98,242.556,0.2713671261143188,0.5491394109087243,42.84286606267226,99.75303383383127
99,242.626,0.27350784525639127,0.5461589761768495,42.772829463718026,99.75303383383127
100,242.696,0.27569385432468124,0.5432333078276914,42.702904313063996,99.75303383383127
101,242.766,0.2778811525943864,0.5403010614315888,42.632940491271505,99.75303383383127
102,242.842,0.28031024626266865,0.5371551261143761,42.55696154640651,99.75303383383127
103,242.914,0.2825671549006657,0.534118390817521,42.484865245618224,99.75303383383127
104,242.986,0.2847260387899692,0.5310251961449904,42.412842438860686,99.75303383383127
105,243.056,0.2867464986720848,0.5279564185155634,42.34277622264572,99.75303383383127
106,243.128,0.2887246077229914,0.5247413321378047,42.27073555405595,99.75303383383127
107,243.196,0.2906129645617336,0.5217161446846601,42.20269061695092,99.75303383383127
108,243.264,0.2925809745880793,0.5187601653374219,42.134741691439736,99.75303383383127
109,243.33,0.2944119112544479,0.515821434453208,42.06869076131742,99.75303383383127
110,243.4,0.2963106832832316,0.5126721466081507,41.99860391731645,99.75303383383127
111,243.47,0.29818212271480293,0.5095070776530052,41.92852003394252,99.75303383383127
112,243.54,0.3001409818152454,0.5064116947465013,41.85852458360575,99.75303383383127
113,243.612,0.30219601201708,0.5032354756476723,41.78643156541699,99.75303383383127
114,243.682,0.30416572492679095,0.5001213348267874,41.71629752432282,99.75303383383127
115,243.756,0.3062340042317877,0.4968007377425348,41.64204890020667,99.75303383383127
116,243.824,0.3082135427944804,0.4938184981233171,41.573919166661895,99.75303383383127
117,243.894,0.3101579460751024,0.49068440596362545,41.50376290773419,99.75303383383127
118,243.962,0.3121185902156459,0.487664851492863,41.4354999016559,99.75303383383127
119,244.032,0.31411421154385316,0.48454741168741133,41.36525903008879,99.75303383383127
120,244.102,0.3160174634450237,0.48137827224818314,41.29504854239343,99.75303383383127
121,244.172,0.3179603499351223,0.4782262676269551,41.224799886570295,99.75303383383127
122,244.286,0.32126950776449714,0.47315607831796413,41.11023858270036,99.75303383383127
123,244.354,0.3233321887447891,0.4701805321831943,41.041845558918936,99.75303383383127
124,244.418,0.32529886623850024,0.46741460033644866,40.97756364190517,99.75303383383127
125,244.484,0.3273408257072007,0.4645651803107496,40.91123686720928,99.75303383383127
126,244.55,0.3293253500042115,0.4616743137899887,40.844904020226714,99.75303383383127
127,244.618,0.3314250948852544,0.458754038056719,40.776663152750125,99.75303383383127
128,244.682,0.3334513805729703,0.4560291389064476,40.712369255262715,99.75303383383127
129,244.748,0.3356184020083876,0.45326712452247986,40.64600972215041,99.75303383383127
130,244.812,0.33764755579658356,0.4505283144068858,40.58163339523874,99.75303383383127
131,244.882,0.33985169004073185,0.4475206413167695,40.511217354158084,99.75303383383127
132,244.948,0.34192190595651606,0.4446896134999423,40.44487988398147,99.75303383383127
133,245.014,0.34394883673663335,0.4418319959488546,40.378566227456886,99.75303383383127
134,245.08,0.34597929664242505,0.4389874687277908,40.31230773718415,99.75303383383127
135,245.146,0.34799036886802287,0.4361104387066157,40.24595093158592,99.75303383383127
136,245.216,0.35017640533882655,0.4331131363331548,40.17565682949814,99.75303383383127
137,245.28,0.3522415976820582,0.43042263944268555,40.11138850029247,99.75303383383127
138,245.346,0.3544123715097356,0.42768046157037876,40.04511381296842,99.75303383383127
139,245.412,0.3566357924096565,0.42497480715741875,39.97880952977767,99.75303383383127
140,245.48,0.35894214152939896,0.4222103280067217,39.91054674005039,99.75303383383127
141,245.552,0.3613874900241291,0.41930754563089956,39.838374037834015,99.75303383383127
142,245.626,0.36399657359138804,0.41639635966663635,39.764143271386594,99.75303383383127
143,245.694,0.36634613578968606,0.41367329209706416,39.69590364897335,99.75303383383127
144,245.762,0.3687786815010184,0.41100871264242045,39.6275914299061,99.75303383383127
145,245.83,0.3712269059556726,0.4083617266316407,39.559294226494764,99.75303383383127
146,245.896,0.3735986454443061,0.4058033681760769,39.49307583672136,99.75303383383127
147,245.962,0.37600581131469063,0.4032914803234995,39.42691836181323,99.75303383383127
148,246.028,0.378467139053482,0.4008200329901457,39.36070378824813,99.75303383383127
149,246.094,0.3809134426489719,0.3983532730213085,39.29457827303476,99.75303383383127
150,246.164,0.38357359237863226,0.3958044416662911,39.224448317537515,99.75303383383127
151,246.238,0.38638836970764084,0.3931038726822472,39.15027186195457,99.75303383383127
152,246.304,0.38886160100888173,0.39064376415191926,39.08405470057043,99.75303383383127
153,246.372,0.39136584738328734,0.3880572470027496,39.01579215115863,99.75303383383127
154,246.44,0.3939200061277755,0.38551494325238755,38.947506757005875,99.75303383383127
155,246.508,0.3965104193199881,0.38300039680975584,38.87918042051908,99.75303383383127
156,246.576,0.39915368216557995,0.3805479015395631,38.81088212230326,99.75303383383127
157,246.648,0.4019098357953664,0.3779002364064543,38.73854084610311,99.75303383383127
158,246.72,0.4046665993687881,0.37527108110118823,38.66627866313752,99.75303383383127
159,246.79,0.40732284375306904,0.3726886190670372,38.59601721719056,99.75303383383127
160,246.856,0.4097901660511358,0.370227105454826,38.52982050172257,99.75303383383127
161,246.926,0.4123724576941493,0.3675867748736045,38.4596327363636,99.75303383383127
162,246.992,0.4147577462317466,0.3650447875728536,38.39343182320634,99.75303383383127
163,247.058,0.417079533631044,0.3624485806744785,38.327249565795356,99.75303383383127
164,247.126,0.41940791339254746,0.35972723821397545,38.25910666653633,99.75303383383127
165,247.192,0.4216911035318458,0.35708792450426197,38.19288040072217,99.75303383383127
166,247.26,0.42405383638451255,0.354361899346752,38.1245713239264,99.75303383383127
167,247.326,0.4262772540444354,0.3516734503038136,38.05835201858875,99.75303383383127
168,247.392,0.4284228099582778,0.3489436098496577,37.99223927994549,99.75303383383127
169,247.458,0.43056490007573334,0.346231658131067,37.92623019673925,99.75303383383127
170,247.526,0.4327929237081385,0.3434458299618155,37.85817873058703,99.75303383383127
171,247.596,0.4351017683854807,0.34058631487267677,37.788105603588015,99.75303383383127
172,247.664,0.43735687125156925,0.33782062674106356,37.72004553454598,99.75303383383127
173,247.732,0.4395899961363702,0.33505831540556574,37.6520909027573,99.75303383383127
174,247.8,0.4418931111265699,0.33234292022507456,37.584081833656406,99.75303383383127
175,247.866,0.4442086863833148,0.3297787012505998,37.518078422156094,99.75303383383127
176,247.934,0.4465929048911903,0.32713877295692717,37.45009092413375,99.75303383383127
177,248.0,0.4489672787420605,0.32464461919703436,37.38416048122356,99.75303383383127
178,248.066,0.4512973529026314,0.3221022917721864,37.31819826188427,99.75303383383127
179,248.134,0.45363591229142,0.31942630406521183,37.25023231822052,99.75303383383127
180,248.202,0.45590375510019293,0.3166694499407413,37.18216432719881,99.75303383383127
181,248.272,0.45826629380901507,0.31383157448461596,37.11198041743611,99.75303383383127
182,248.338,0.4605408674215738,0.31121343603596696,37.04589267376531,99.75303383383127
183,248.404,0.46285176837217873,0.30863131807715777,36.97982407243797,99.75303383383127
184,248.472,0.4652785535828392,0.3060359765979203,36.91186234893641,99.75303383383127
185,248.54,0.46766854507812905,0.3034271846748967,36.84399740218692,99.75303383383127
186,248.608,0.4700274816993927,0.30077205059714085,36.776045375640564,99.75303383383127
187,248.672,0.47224501851196454,0.29828526713097253,36.71215991744697,99.75303383383127
188,248.738,0.474489315029807,0.29567939721400704,36.64625832760348,99.75303383383127
189,248.806,0.4767921045627925,0.29297981743134416,36.57832770804075,99.75303383383127
190,248.874,0.4790981503736618,0.2902869764184224,36.51041633335258,99.75303383383127
191,248.944,0.48144106209765186,0.2875037804493728,36.44058139110194,99.75303383383127
192,249.01,0.48364764643645064,0.2848807450422034,36.374752587726555,99.75303383383127
193,249.076,0.4858428768758025,0.28225139712425074,36.30893949439995,99.75303383383127
194,249.144,0.4880250854430133,0.2794898368198518,36.241192074105285,99.75303383383127
195,249.21,0.4902155623903687,0.2768596311027617,36.17539424750109,99.75303383383127
196,249.276,0.49238435374247863,0.27419117292680817,36.109495542244275,99.75303383383127
197,249.342,0.4944771166797771,0.27146608962044066,36.04361414287718,99.75303383383127
198,249.406,0.49649626590957396,0.26881965858032336,35.979748863534375,99.75303383383127
199,249.474,0.49867480148359167,0.2660396884019495,35.9119233881484,99.75303383383127
200,249.546,0.5009536254082272,0.2630882272588833,35.840177430043575,99.75303383383127
201,249.614,0.5030544475845808,0.2602699864245275,35.77245940814454,99.75303383383127
202,249.682,0.5051306121670563,0.25741576920205295,35.70464955459801,99.75303383383127
203,249.75,0.5071589708015654,0.2545235105361304,35.636819415901186,99.75303383383127
204,249.82,0.5092387021589938,0.25152568317463664,35.56691698690733,99.75303383383127
205,249.888,0.5112758942462517,0.24860870720579348,35.49892482852361,99.75303383383127
206,249.956,0.5132664463932877,0.24567273312801183,35.4310017215911,99.75303383383127
207,250.022,0.515190633247048,0.24282005317189764,35.36508817550577,99.75303383383127
208,250.09,0.5172387593497849,0.23991436479770947,35.297114961779045,99.75303383383127
209,250.156,0.5191808811442824,0.23707867610737007,35.23122682836956,99.75303383383127
210,250.222,0.5211779289391493,0.23426475049105427,35.16525189746789,99.75303383383127
211,250.292,0.5232812214497665,0.2312749335197865,35.095305137539675,99.75303383383127
212,250.364,0.525449866005378,0.22818686368176166,35.02327337264559,99.75303383383127
213,250.436,0.5275198400755206,0.22504615887300514,34.951318369918695,99.75303383383127
214,250.5,0.5293400476538239,0.2222458727083909,34.887381881982606,99.75303383383127
215,250.57,0.5312867849020887,0.21917270341864925,34.81754804782535,99.75303383383127
216,250.64,0.5333058415607996,0.21613462337903383,34.747650645999194,99.75303383383127
217,250.706,0.5352643518430038,0.21330580988206854,34.681739266529306,99.75303383383127
218,250.772,0.5372061709479476,0.21047350038906165,34.615870068393676,99.75303383383127
219,250.838,0.5391599686149926,0.20763375412319762,34.54991823505502,99.75303383383127
220,250.904,0.5410231105616995,0.20473549217653625,34.483975932379444,99.75303383383127
221,250.97,0.5427952100522876,0.20179821714883794,34.41812977906788,99.75303383383127
222,251.038,0.5445459133851316,0.19872937058744747,34.350296576621005,99.75303383383127
223,251.106,0.5463449034203364,0.19570337318344772,34.282544814649626,99.75303383383127
224,251.174,0.5480631662127536,0.19264236594362794,34.214857531840664,99.75303383383127
225,251.242,0.5497845664163733,0.18959944489920508,34.14726123372285,99.75303383383127
226,251.308,0.5514763951139754,0.18666453864539018,34.08168914047454,99.75303383383127
227,251.372,0.5532019494390791,0.18386728369996358,34.018093184064206,99.75303383383127
228,251.44,0.5551224020015515,0.1809316483906195,33.95042058253313,99.75303383383127
229,251.504,0.5570072415205145,0.178238600049323,33.886821747855265,99.75303383383127
230,251.578,0.5591971809158355,0.17511109347698697,33.81317504452991,99.75303383383127
