,t,x,y,energy
0,244.76,0.8826694276200349,0.6196339058969271,49.62632511163432
1,245.14,0.8766128282270823,0.6394417956969606,49.24242828406284
2,245.5,0.8707819452179468,0.6581820380565102,48.87879255800327
3,245.87,0.8641839217152282,0.6773017601233267,48.50523860037649
4,246.23,0.8579154817925664,0.6958627756522386,48.14222092606806
5,246.62,0.8511729161809672,0.7158861568558585,47.749532141573106
6,247.0,0.8445693916814232,0.7353519161449523,47.36714660077792
7,247.37,0.8387835429096722,0.7142813213699222,46.99453114226171
8,247.73,0.8324519610869784,0.6957610644184321,46.63169139658565
9,248.1,0.8254059756777484,0.6767492012042224,46.25824682755124
10,248.46,0.8179381382614035,0.6584631615234386,45.89537375600723
11,248.82,0.8104047125831042,0.6401468407712804,45.53222293945
12,249.2,0.8026667115370553,0.6207269303437071,45.14866870213456
13,249.55,0.7960114954354803,0.6027697138347976,44.79558941395063
14,249.92,0.7897311615544051,0.5837209572144368,44.422849839804705
15,250.32,0.7837823173937708,0.5629935957901527,44.0199609263859
16,250.7,0.7783243174209382,0.5432384222391289,43.6370064284463
17,251.08,0.7727952430480157,0.5234101531435411,43.25352440808048
18,251.45,0.7679062694422838,0.503976718429065,42.879800161312446
19,251.82,0.7631705285480337,0.4845819598193957,42.50645370670096
20,252.18,0.7591894915476666,0.4655777358387554,42.14285886663962
21,252.55,0.755093566610327,0.44604438079484476,41.769153148070245
22,252.91,0.7509624623237376,0.4271310595635637,41.40601861489362
23,253.28,0.746756151978116,0.407700825189789,41.032880984488514
24,253.65,0.7425152070932443,0.38833733903906753,40.66013816255023
25,254.04,0.7374954594816762,0.3680035530513831,40.267274653985154
26,254.42,0.7326112810581203,0.3481559087996621,39.8842687901429
27,254.78,0.7284391781086267,0.3292845839320706,39.521367453438536
28,255.16,0.7234789253310862,0.3094150127012918,39.138156882491835
29,255.52,0.7180298096916157,0.2907203883770818,38.775209854177085
30,255.89,0.7126616279218513,0.27148509736051274,38.40228050138369
31,256.26,0.707679558287483,0.252205264751395,38.02943787464199
32,256.62,0.7028196220815732,0.23347243374646856,37.666823499875534
33,256.99,0.6975346381309143,0.21424833373626884,37.29404550186093
34,257.36,0.6926281194138966,0.1949717428707043,36.92129174869238
35,257.72,0.6885580804090865,0.1760945214083846,36.55843234113982
36,258.09,0.6843082523509302,0.15666161272531948,36.185244175562666
37,258.46,0.6800662315317076,0.13722409637471517,35.812032968365074
38,258.83,0.6751445222661508,0.11782314135628949,35.43848370647589
39,259.19,0.6705170372373107,0.09886234083491183,35.07464263894024
40,259.56,0.6657146134299418,0.07933964983345802,34.70043304278281
41,259.92,0.660696282958036,0.06030176028508799,34.33575646169273
42,260.38,0.6540824074083086,0.03588738791419842,33.86903733920024
43,260.89,0.6457556249418465,0.008867438464668776,33.35087670769205
44,261.3,0.6398127055614194,0.044253916608977234,32.934147666747265
45,261.67,0.6342539237156448,0.06399245821455737,32.55787817943043
46,262.04,0.6283993849938674,0.08365505862954155,32.18178224565429
47,262.4,0.6226478643875252,0.10285356685163434,31.81537264943034
48,262.79,0.6167332364810245,0.12361254451463251,31.419000216651714
49,263.17,0.6103494840951742,0.14371051167688156,31.032938153361826
50,263.54,0.5847330586579389,0.14967440160666015,30.65703561805325
51,263.94,0.5570396257528197,0.15612185017939376,30.250654498800735
52,264.32,0.5307308644929565,0.16224692632349066,29.864592435510847
53,264.7,0.55811231495642,0.15998406405630394,29.47853037222096
54,265.06,0.5840893661870094,0.15784350226932609,29.112614361366333
55,265.43,0.6107869361825353,0.15563621580732032,28.736534016876856
56,265.8,0.6374845061780614,0.15342892934531455,28.36045367238738
57,266.18,0.6649036321194124,0.15116198649244375,27.97420899426305
58,266.55,0.6916012021149385,0.14895470003043795,27.598128649773574
59,267.04,0.7269574434603647,0.14603153687805193,27.100076301665887
60,267.48,0.7587059050766659,0.143406655679991,26.652845621732453
61,267.88,0.787568142909667,0.14102040004539018,36.24627227633842
62,268.23,0.7825396905744246,0.15969905604047913,35.890520599118645
63,268.59,0.7773675681724611,0.17891138792114208,45.52460458826402
64,268.94,0.8022997555030857,0.18257981185649844,45.16885291104424
65,269.29,0.8272319428337105,0.1862482357918548,44.81310123382446
66,269.64,0.8521641301643351,0.18991665972721114,44.45734955660468
67,269.99,0.8770963174949599,0.19358508366256752,44.101597879384904
68,270.35,0.902740853035031,0.19735831971036263,43.73568186853028
69,270.71,0.9283853885751022,0.20113155575815775,43.36976585767565
70,271.1,0.9561669687435127,0.20521922814326915,42.97335684591647
71,271.47,0.9825238524930302,0.209097276303503,47.59727650142699
72,271.83,1.0079503974049568,0.2134485426357978,47.23161644336533
73,272.18,1.0325861703460322,0.217798358245342,46.8763360578487
74,272.53,1.0383295579975544,0.2362850892868039,46.52105567233206
75,272.88,1.0440729456490767,0.2547718203282658,46.165775286815425
76,273.25,1.050144526880686,0.27431493600066836,45.790193164983556
77,273.6,1.0558879145322082,0.2928016670421303,45.43491277946692
78,273.98,1.062123592553861,0.3128729750300032,45.04917978947743
79,274.35,1.0681951737854702,0.3324160907024058,44.67359766764556
80,274.72,1.0742667550170795,0.3519592063748084,49.29801554581369
81,275.07,1.0803358427818979,0.37043847276100894,48.94241726415948
82,275.42,1.0856575106408797,0.38900964221029044,48.587051895090354
83,275.78,1.0903976762492473,0.40812991817941235,48.222108994248124
84,276.13,1.094957931599148,0.4267629301816549,47.86706946110273
85,276.49,1.0998951973805025,0.445849648045758,47.502160991823686
86,276.87,1.1055383886353118,0.4660264228636143,47.11638361360033
87,277.26,1.11198541749768,0.4867238468284141,46.71983789949087
88,277.64,1.1185602086220419,0.5068196610520443,46.3335737127534
89,278.0,1.1247868167264519,0.5258553216433224,45.967657079138284
90,278.35,1.1314207113178927,0.5441934254369846,45.61225424184493
91,278.7,1.1379997193577753,0.5625298010368149,45.256930804777255
92,279.05,1.1444692630753817,0.5809684415935972,44.9011100085562
93,279.4,1.150998322920184,0.5993138333145169,44.54579290051071
94,279.76,1.1575967427379144,0.6182511904536033,44.18004790976403
95,280.11,1.1785657552433688,0.6289654235329644,43.82446250209364
96,280.48,1.2007329970348493,0.6402918985025745,43.44855792827066
97,280.82,1.221102894897291,0.6507000106368108,43.103132103676565
98,281.2,1.2438692513317844,0.6623326065515457,42.717067946777284
99,281.6,1.267833837052304,0.6745774443565297,42.310684623725415
100,281.96,1.2894019642007712,0.6855977983810152,41.94493963297873
101,282.34,1.3121683206352648,0.6972303942957498,46.55887547607945
102,282.9,1.3454044465348547,0.7144932763349757,45.99074711612237
103,283.39,1.2505976803268168,0.7296923352379869,45.493621046398594
104,283.75,1.2291960872943908,0.7408942206615065,45.12787461259104
105,284.13,1.2066555620685588,0.715850930778964,44.74133986449727
106,284.5,1.185031937260248,0.7037840874264911,44.36481180042153
107,284.87,1.1631394638524122,0.692138572942079,43.98882466020039
108,285.24,1.1414914551845974,0.6803855455859218,43.613390589444755
109,285.59,1.120970883045925,0.6693465539207901,43.25837845781181
110,285.94,1.1003854140307736,0.6582611627821693,42.902940108458054
111,286.3,1.0791602788494603,0.6470395922395161,42.537814763809905
112,286.66,1.058239218091884,0.6354012266014928,42.17230896258464
113,287.01,1.0377872429342332,0.6242541656318871,41.81715892899314
114,287.38,1.0165427619850218,0.6120365794479574,41.441501564716624
115,287.74,0.9963944432144368,0.5997096603824508,41.0762171133835
116,288.09,0.9773776169796585,0.5873349461908003,40.721571960995945
117,288.46,0.9573925960899451,0.5742826527765128,40.34721465363403
118,288.82,0.9380230668666751,0.5616158542162688,39.98338542874424
119,289.18,0.9190541719699395,0.5487354724859432,39.62008586776181
120,289.53,0.9001868025797408,0.5364490926725061,39.26635306837482
121,289.89,0.8809137582124275,0.5238195125605342,38.90302939085115
122,290.25,0.8611872062144145,0.5116852853755666,38.54009277486482
123,290.61,0.8414984843672466,0.49962144806308884,38.17758202213043
124,290.96,0.822381009485564,0.4877468949985172,37.82463836544763
125,291.33,0.7961523119307226,0.48714768870699493,37.451526499811536
126,291.72,0.7685058469404844,0.48651609288620123,37.05824642522214
127,292.08,0.7429860331033413,0.48593308135931473,36.69521866406269
128,292.44,0.7174662192661984,0.48535006983242823,36.33219090290325
129,292.82,0.6905809038688724,0.4848318199059144,35.949263163871606
130,293.18,0.6649992711745057,0.4842319866998162,35.585935492385694
131,293.54,0.6393300377265548,0.48375019150703197,35.22220875494472
132,293.92,0.6122907055999096,0.4833216134734772,34.83855537198624
133,294.29,0.5859643414774802,0.4834635306791932,34.465029836167986
134,294.65,0.5604295018711499,0.48308615658166526,34.10196297308915
135,295.01,0.5349059184328596,0.48376857320013544,33.738896110010316
136,295.36,0.5100913234234109,0.4844320338014258,33.38591443757256
137,295.71,0.485276728413962,0.4850954944027162,33.0329327651348
138,296.19,0.4512948109017517,0.48539353750690023,32.5491739555926
139,296.76,0.41100127934579084,0.4862121600148928,31.974940643415874
140,297.16,0.3827686068580324,0.4863061540739101,31.57222710307679
141,297.53,0.3851688027316803,0.5058098650869832,31.19971707826314
142,297.92,0.38852368603172,0.48531842289241894,30.807071376432535
143,298.32,0.3919645919804787,0.4643015591031223,30.404357836093453
144,298.72,0.3954054979292374,0.4432846953138257,30.00164429575437
145,299.1,0.3986743585805581,0.4233186747139938,39.61906643243225
146,299.52,0.41263046925913444,0.40370321113337687,39.19621721507621
147,300.05,0.4302417517820997,0.37895036423402695,38.662621774126926
148,300.54,0.4465238809071055,0.35606565672330714,38.169297687211554
149,300.92,0.4591508381877222,0.3383183325313204,47.78671982388943
150,301.41,0.4760001803773173,0.3156844162422373,47.29349999344943
151,301.8,0.48890564608071213,0.2975301396656924,46.901315062107784
152,302.19,0.5024652856404276,0.2796557996101367,46.5091841592073
153,302.56,0.5158695765935708,0.2629259363236908,46.137112710943676
154,302.93,0.5297380256850406,0.24630015524245802,45.76444445219228
155,303.31,0.5222449541166772,0.2269586822821566,45.381704078339496
156,303.69,0.5147518825483136,0.20761720932185518,44.99896370448671
157,304.08,0.5070616248860458,0.18776675023101952,44.60615121553254
158,304.47,0.499371367223778,0.16791629114018386,44.21333872657837
159,304.85,0.4918782956554145,0.14857481817988247,43.83059835272559
160,305.22,0.4845824101809553,0.12974233135011531,43.45793009397419
161,305.6,0.4770893386125918,0.11040085838981392,53.07518972012141
162,305.97,0.4830082500268785,0.0912985534637227,52.70252146137001
163,306.34,0.4886224301789218,0.11045253362742677,52.329853202618615
164,306.71,0.494236610330965,0.12960651379113086,51.95718494386722
165,307.08,0.49985079048300823,0.14876049395483495,61.58451668511582
166,307.45,0.506163416727021,0.16770239275686963,61.21240340182035
167,307.82,0.5128144984208152,0.18649842427126864,60.84078881283412
168,308.18,0.5196003557962283,0.20476593974054355,60.47894830962534
169,308.55,0.5171756931391488,0.22417090266688966,60.10705668132742
170,308.92,0.5147510304820692,0.24357586559323577,59.735165053029505
171,309.29,0.5123263678249896,0.2629808285195819,59.36327342473159
172,309.66,0.5099017051679101,0.28238579144592796,58.99138179643367
173,310.1,0.5070183225486804,0.30546196357455574,68.54913229251183
174,310.46,0.5050334936663161,0.3243104967131686,68.18765020644881
175,310.82,0.5027859543866794,0.34322301991768506,67.82565439918591
176,311.19,0.49993214156034455,0.36267505289337576,67.45325430106296
177,311.58,0.4973381867118298,0.3831229437216285,67.06128133168839
178,311.95,0.4954853475977019,0.40256182554453107,66.68939927934599
179,312.41,0.4927502098000108,0.42670397075313593,66.22705809943828
180,312.77,0.4913765695037044,0.44558492926436355,65.86556437433282
181,313.13,0.49024278315098613,0.46445824054524254,65.50417680580303
182,313.48,0.48916613041116047,0.48283620840373126,65.15264837707502
183,313.87,0.4875806115162141,0.5032630035405286,64.76118006165403
184,314.31,0.4852464412018308,0.5263703838191569,64.3189541089295
185,314.76,0.516225356469294,0.5310475079819328,63.86667756637033
186,315.09,0.5389432276654337,0.5344773990346351,63.53500810182693
187,315.42,0.5616610988615734,0.5379072900873374,63.20333863728354
188,315.76,0.5850673903969901,0.5414411172325458,62.86161858290549
189,316.11,0.6091621022716838,0.5450788804702603,72.5098479386928
190,316.47,0.6339610385260317,0.5488677959937257,72.14789237711564
191,316.82,0.6580596317039504,0.5527609319275739,71.79577013301761
192,317.17,0.6819621905890647,0.5571179382103262,71.44390190771858
193,317.52,0.7059122733842484,0.5609241139836068,71.09259306215671
194,317.86,0.7291492075470124,0.5648250318654524,70.7511797448036
195,318.21,0.7529393347155572,0.5691395630592523,70.39990004607974
196,318.55,0.77609226764663,0.5731538070878526,70.05871899788933
197,318.9,0.7997349065015081,0.5776243397783577,69.7078872266319
198,319.24,0.8225653663651792,0.5822825605043728,69.36720210776689
199,319.59,0.8458225133289974,0.5874692169040762,69.01694113785322
200,319.93,0.8685034082176972,0.5922797657997092,68.67668720126339
201,320.27,0.8910609800742162,0.5974287246180074,68.33639123288881
202,320.62,0.9143566570852382,0.6027434762474928,67.98571703043503
203,320.98,0.9380366726171747,0.6087572502868683,67.62523760835107
204,321.33,0.9608907114730022,0.6151598144719524,67.27433904168437
205,321.68,0.9840335177824132,0.6212231022387744,66.92287485397625
206,322.03,1.0073264835891274,0.6269468852439318,66.57142451827593
207,322.38,1.0305152239725897,0.6331734372307978,66.21940406278571
208,322.75,1.0552239294291113,0.6395967518849331,65.84672403384593
209,323.11,1.0792913361956207,0.6459716029658773,65.48373185499122
210,323.73,1.1202539051491582,0.6578263613868137,64.8588282662445
211,324.3,1.1581027286791865,0.668540276492333,64.28389121367073
212,324.66,1.1820632411883412,0.6749337109635338,63.921342907745206
213,325.0,1.2050033029015454,0.6805132449371433,63.578469108607116
214,325.33,1.2273895245339652,0.6854401941803399,63.24604796874697
215,325.66,1.2497219763891678,0.6906143376988426,62.91341773541696
216,325.99,1.2722260642186645,0.6955154794540187,62.58049978796976
217,326.33,1.2955722185447078,0.7000617792751929,62.23760641086978
218,326.66,1.3182755754030764,0.7043676660215231,61.904763736191995
219,326.99,1.2838705916309088,0.708396601239036,61.57163942122489
220,327.31,1.261817738625288,0.7123991478190488,61.248973985971475
221,327.64,1.2389393997061355,0.7164141444622568,60.91575551809445
222,327.97,1.215839793311263,0.7200421812003839,60.582036069218674
223,328.29,1.1934898302561512,0.7238653802797568,60.258244924878504
224,328.64,1.1689162620518234,0.7275493053999609,59.9041625579222
225,328.98,1.1449575704480557,0.7306812003149721,59.56031104887311
226,329.32,1.1211750005296068,0.7340930190150464,59.21696905977517
227,329.66,1.0973755041661954,0.7377442499920466,58.873249888828234
228,330.01,1.0727697782083705,0.7272705984694494,58.518951545802096
229,330.36,1.0481240197585169,0.7239160815464504,58.16492365245375
230,330.72,1.0229216475996834,0.7201058912790208,57.80104313247797
231,331.09,0.9971258669754338,0.7158188165840812,57.427064169450325
232,331.47,0.970666802951767,0.7113395939615444,57.043029908322694
233,331.85,0.9443331077379717,0.7064794862187753,56.65902171898633
234,332.21,0.9195161346676223,0.7016996143351224,56.29555911153982
235,332.57,0.8941372414113888,0.7043418218491461,55.932096504093316
236,332.96,0.8666434403838026,0.7072042133226716,55.53834534602626
237,333.36,0.8384446700990988,0.7101399994493645,65.13449800441903
238,333.75,0.8108163694353302,0.7129118311710677,64.74018542780581
239,334.11,0.7851934642853465,0.7154417666172864,64.37565841342554
240,334.47,0.7596777055512557,0.7180502560902761,64.01157438807799
241,334.82,0.734857654267841,0.7207499843965378,63.65739577869387
242,335.16,0.7107530101043505,0.7234246468339449,63.31331800148009
243,335.5,0.6866575161273842,0.7256503877694819,62.96966965428583
244,335.85,0.6619394045314518,0.7279110161695679,62.61634789029959
245,336.19,0.6377732582372687,0.7297254555590086,62.27265451210957
246,336.54,0.6128557315311984,0.7321236019091467,61.91827367913176
247,336.88,0.6077498382932223,0.7142256239465355,61.574018012810456
248,337.22,0.6311146325951417,0.7089411499939952,61.22976234648915
249,337.57,0.6551666267294706,0.7035012503369684,60.87538151351134
250,337.91,0.67853142103139,0.698216776384428,60.53112584719004
251,338.26,0.7025834151657188,0.6927768767274013,60.17674501421223
252,338.6,0.6860402318092788,0.6793210673079136,59.83248934789093
253,338.95,0.6690104842364728,0.6654694987878529,59.47810851491312
254,339.29,0.6524673008800328,0.6520136893683653,59.133852848591815
255,339.64,0.6761205740116194,0.6583612772983367,58.779472015614004
256,339.98,0.6992362910022403,0.6640588371739546,58.43556227539095
257,340.33,0.7232351027250483,0.6694229460107995,58.08156525894279
258,340.67,0.7462493102095178,0.6750976029534923,57.73816417107598
259,341.02,0.7699023636247476,0.6808016737836068,57.38510879234242
260,341.36,0.7928056303832426,0.686402229759788,57.04236134834996
261,341.71,0.8163619732160013,0.692492450653901,56.68896537467696
262,342.05,0.8393091592914141,0.6982422474211117,56.34571836832919
263,342.4,0.8630182917525654,0.7040177592907554,55.99226625245755
264,342.75,0.8865241454857249,0.7101045294683491,55.639106578653625
265,343.12,0.9113909086415486,0.7166504698811835,55.26545172838996
266,343.5,0.9372328884328017,0.7229410461795428,54.881204705762045
267,343.88,0.9630869749324037,0.7289288477418889,54.49748728645945
268,344.23,0.9868305017373695,0.7345669197666433,54.14414658122977
269,344.59,1.011256788696661,0.7281250564561819,53.7801803215854
270,344.93,1.0345531109677617,0.7228471597359797,53.43625146497706
271,345.28,1.0586203638427636,0.7177066117895785,53.08233932423041
272,345.62,1.0818783358664577,0.7124215191225203,52.738573326589
273,345.96,1.1051244502020579,0.7073300433383083,52.39521522985214
274,346.31,1.1290352785130708,0.7017442104085585,52.04120853856753
275,346.68,1.154474193700208,0.6959120414456843,51.66636847615509
276,347.09,1.1826804901736137,0.6896586472899842,51.25131159110239
277,347.48,1.2095083923579677,0.6835553043644277,50.8562282056591
278,347.83,1.2335683957911767,0.6782396654683247,50.50203769754244
279,348.17,1.2567407062339304,0.6727798281073928,50.158334852478184
280,348.51,1.279745905843504,0.6667798657189483,49.81430764938316
281,348.85,1.3028065126003874,0.6609352657250108,49.470351324397654
282,349.19,1.3259417955428021,0.6551105950155854,49.12609601518456
283,349.54,1.275412327978403,0.6487090216598208,48.7716317394745
284,349.87,1.253177114804071,0.6423796154397456,48.43703777361651
285,350.21,1.2301545125293945,0.6360259731057498,48.09216928719211
286,350.55,1.207031969618493,0.6298632209264701,47.74726517481053
287,350.89,1.1837997201624562,0.6238490333558228,47.40217838001518
288,351.23,1.160608472504105,0.6177579725488977,47.05711591276126
289,351.56,1.1383100511599058,0.6115117285239038,46.722425549489905
290,352.17,1.0973049940647917,0.5992803932615127,46.10313277320472
291,352.73,1.0596268289680575,0.5882555302782223,45.534927355652485
292,353.08,1.0363416572836655,0.5809671245463267,45.18001946728325
293,353.44,1.0127062293306333,0.5730870273562543,44.81538902997179
294,353.84,0.9864422425030958,0.5644726027810392,44.410598248083254
295,354.24,0.9609712347468522,0.574335905612175,44.00580746619472
296,354.59,0.9389384870483306,0.5834584603019535,43.65120871586045
297,354.94,0.9169568586745532,0.592835549892661,43.29602763673104
298,355.3,0.8941242959008738,0.6022520199841387,42.93047874363562
