,t,x,y,energy
0,354.24,0.11521568073016025,0.4212112211366484,49.55688373063843
1,354.59,0.0925366534473544,0.4108428763208766,49.16915699494706
2,354.94,0.06985762616454855,0.4004745315051049,48.781430259255686
3,355.3,0.04653062667366252,0.3898099482660254,48.382625616830275
4,355.64,0.024499571598936835,0.3797378418735614,48.005976787872946
5,356.0,0.03655080163921775,0.39812599058490594,47.607172145447535
6,356.37,0.04893678806950647,0.4170249212048989,47.19728959628809
7,356.73,0.060988018109787386,0.4354130699162434,46.798484953862676
8,357.08,0.0727044917600605,0.4532904367189395,46.4107582181713
9,357.43,0.08442096541033359,0.4711678035216355,49.356364815813265
10,357.79,0.06078226054933324,0.48143905651936214,48.957560173387854
11,358.13,0.0384568170694996,0.4911396843505484,48.580911344430525
12,358.48,0.015474742899082608,0.5011256247650049,50.69318460873915
13,358.83,0.044417722920482225,0.5156158540184796,50.30545787304778
14,359.17,0.06212278495472616,0.529692076721855,49.92880904409045
15,359.52,0.08034858410762433,0.5441823059753298,49.541082308399076
16,359.85,0.06801933105800397,0.5278343067057549,49.175511386175785
17,360.2,0.05494285055083084,0.5104955196016604,48.78778465048441
18,360.54,0.04223998377243409,0.4936521264148258,48.41113582152708
19,360.9,0.029407456213028493,0.4755622692795546,48.01232261640367
20,361.28,0.01664581817705788,0.4562756409779413,47.59198152644456
21,361.64,0.0378609483805508,0.43819019224610667,47.19317614937589
22,362.01,0.05129232442401103,0.41973610477404505,46.78351180592509
23,362.37,0.07428361289044494,0.4087305759587811,46.384919471756746
24,362.74,0.09791354825872425,0.3974193380097598,45.975255128305946
25,363.12,0.12218213052884895,0.38580239092698126,45.554518775572696
26,363.49,0.14581206589712828,0.37449115297796,45.144854432121896
27,363.9,0.17199658887278915,0.3619570784939094,44.69090205154128
28,364.3,0.19754246494660463,0.34972871314361614,44.24802168024312
29,364.69,0.22593831394369257,0.34360086623911645,43.81621331822741
30,365.06,0.2528779655563145,0.3377872678938218,43.40654897477661
31,365.44,0.28054571586116944,0.3318165452689247,42.98581262204336
32,365.79,0.3060291700893253,0.32631719548283517,42.59829229715747
33,366.16,0.3329688217019472,0.32050359713754056,42.18862795370667
34,366.52,0.35935474489434854,0.3152209687228602,41.78986843913006
35,366.87,0.3437674060326297,0.29910027102613335,41.402185577736134
36,367.23,0.3275475889589841,0.28262729720259083,41.00345503791941
37,367.58,0.31196298168811004,0.2664689203717078,40.61558456576171
38,367.94,0.2963853172883227,0.2495087705114251,40.216105736799996
39,368.3,0.280290070568901,0.23279593827756712,39.816488175802455
40,368.66,0.26426885853210624,0.21604454263867878,39.416877906980005
41,369.02,0.24372311747870554,0.20234984948115436,39.017267638157556
42,369.37,0.22374809145456595,0.1890355644668945,38.62875765458018
43,369.72,0.2037730654304264,0.17572127945263466,38.2402476710028
44,370.07,0.18357846769503322,0.16271324441463483,37.8522335734202
45,370.44,0.162077917573323,0.14903127185244722,37.441780704790254
46,370.8,0.14112870811423414,0.13561321479910707,37.04187321274571
47,371.18,0.11888634122430017,0.12151271209408902,36.61953668723019
48,371.59,0.09533460509003046,0.10586799433558236,36.16367391102896
49,371.97,0.07289504504350611,0.09177656308217,35.74065045249335
50,372.33,0.05116526282575964,0.07893391849078928,35.3401821957026
51,372.69,0.029677617710061218,0.06583868876384134,34.939611387864545
52,373.06,0.007070732435919628,0.0528657235761689,34.5278708708132
53,373.43,0.057079024417661314,0.039820712190122134,34.11632014705108
54,373.81,0.08033072067585441,0.02651774254259545,33.69340263437974
55,374.23,0.1060456742916213,0.011761029820534216,33.22569996772987
56,374.61,0.1295720578952938,0.03250891897562298,32.80281487344029
57,374.98,0.15754749874422455,0.028552205330326912,32.3910583342636
58,375.34,0.18476684659723822,0.024702429891660466,31.99043035019979
59,375.7,0.21198619445025188,0.020852654452994022,31.589802366135984
60,376.06,0.23920554230326554,0.017002879014327576,31.189174382072178
61,376.42,0.26642489015627924,0.01315310357566113,30.78854639800837
62,376.78,0.29352801573587584,0.022352855684870103,30.387958302208784
63,377.14,0.32086386903574815,0.026066850684373772,29.98693837682745
64,377.5,0.3482574596520359,0.029851912517727213,29.585564083760087
65,377.86,0.3756595853378054,0.033190279721884715,29.184637651145238
66,378.22,0.3484344505822439,0.037262532601117816,28.78371121853039
67,378.59,0.32045306208347246,0.04144790361588517,28.37164794056513
68,379.13,0.27961535995013026,0.047556282934734816,27.770258291642858
69,379.68,0.23802140407357805,0.053777780389118714,27.157731797370175
70,380.04,0.2107962693180166,0.05785003326835181,36.75680536475533
71,380.41,0.18276000360787095,0.06215950199109549,36.34432649982299
72,380.76,0.15619748731246225,0.06616770777605922,35.95403453310213
73,381.12,0.1289009357248494,0.07068414707374457,35.55218832465088
74,381.5,0.1440333217984668,0.0896816057742599,35.12801732684122
75,381.85,0.15797104581364074,0.10717926510368195,34.73733351306916
76,382.22,0.17270521120111035,0.1256767906804995,34.3243249099387
77,382.58,0.1870411559024321,0.1436743831336193,33.92247870148745
78,382.94,0.20137710060375386,0.16167197558673913,43.520632493036196
79,383.32,0.17994222400291493,0.1768794399417338,43.096461495226535
80,383.69,0.1590714231020981,0.19168670786633388,42.68345289209608
81,384.07,0.13763654650125917,0.20689417222132858,42.25928189428642
82,384.49,0.11394536710033192,0.22370242229790166,51.79046131775995
83,384.86,0.09315893225208931,0.23865974530986053,51.37708349546242
84,385.22,0.07338879650890724,0.2535433489539131,50.97495345429087
85,385.59,0.05276936546323851,0.2686531855833721,50.561472581958355
86,385.95,0.03294308544643822,0.2835399872149568,50.1591377249965
87,386.31,0.013634007207236395,0.29882149480800674,49.75672348571472
88,386.67,0.047212852571438105,0.3142184752550611,49.35419497370968
89,387.03,0.06650399859823437,0.3295142252046626,48.951773722088426
90,387.4,0.08567332765833804,0.34558658816179955,48.53865464870429
91,387.75,0.10364684471261458,0.3609697648254696,48.14751369853332
92,388.12,0.12283851190070987,0.3769994544018696,47.734526445093266
93,388.48,0.14218496171637424,0.3922329294534888,47.33221151201184
94,388.85,0.12464512301471213,0.4093931558946176,46.918721164122594
95,389.2,0.10805338370232907,0.4256258025281179,46.52758164584899
96,389.56,0.0909875946953065,0.4423222390654324,46.12526671276756
97,389.93,0.0734477559936444,0.45948246550656124,45.71177636487832
98,390.29,0.056381966986621825,0.47617890204387575,45.30946143179689
99,390.65,0.039316177979599264,0.49287533858119026,44.90714649871546
100,391.02,0.021776339277937182,0.5100355650223192,44.49365615082622
101,391.39,0.0042365005762751,0.527195791463448,54.080165802936975
102,391.75,0.05451431752103654,0.5438572489395435,53.6779747562313
103,392.12,0.0724245686696488,0.5608244898207556,53.26436603815593
104,392.48,0.08949323837892022,0.5774842850328618,52.86222871583439
105,392.84,0.08728857630599848,0.5984292888840861,52.460091393512855
106,393.21,0.08502267361994004,0.6199560983978445,52.04678359001572
107,393.69,0.08208312418937773,0.6478827701994769,51.510600493587006
108,394.05,0.07987846211645598,0.6688277740507013,51.10846317126547
109,394.42,0.07761255943039755,0.6903545835644596,50.695155367768336
110,394.92,0.0745505287735618,0.71944486669116,50.13663130898842
111,395.27,0.07240710731377678,0.7398080648798503,59.74566446784248
112,395.6,0.07086108475911766,0.7096945169455868,59.37689145043048
113,395.94,0.06920978327580557,0.689915115504065,58.997253819658965
114,396.28,0.0683848781462317,0.6701893474577874,58.61814527032583
115,396.62,0.06801293514254278,0.6504767560277485,58.23917049799564
116,396.94,0.06837148163525798,0.6319776819388602,57.8828330399523
117,397.27,0.06847040783689863,0.6128178030796972,57.51484268019492
118,397.6,0.06847118233090975,0.593686221856959,57.14703434464636
119,397.94,0.06797430131309666,0.5739170358829382,56.76768752127654
120,398.27,0.06715891399526051,0.5547443736700017,56.39955386414525
121,398.6,0.06609999047323133,0.5355970423964158,56.03153936080422
122,398.93,0.0645112957054635,0.516441747189481,55.66334231215087
123,399.26,0.06259044655920633,0.49721805772695743,55.29459948813086
124,399.59,0.060357167594626705,0.47800910462468726,54.92582949415746
125,399.93,0.058866835588027674,0.4581569298806297,54.545772793056365
126,400.26,0.05733101444557197,0.4388936694629793,54.17690150109
127,400.58,0.05512816362950685,0.4202857149848679,53.81941123704916
128,400.91,0.05300546113542115,0.4010104527349802,53.45026328263518
129,401.27,0.05112156263364539,0.3798655818234075,53.046962087944365
130,401.63,0.04954605820605442,0.35861342663486007,52.64306598487434
131,401.97,0.04798755696806001,0.3385847244011161,52.26186263051635
132,402.31,0.047181966229409594,0.3184552195626222,51.88017422497186
133,402.63,0.04632114766128188,0.299548202169197,51.52116791235306
134,402.97,0.04608729882275896,0.27952966035774096,51.140242772202285
135,403.31,0.04527560803845468,0.25948050769580133,50.75906750285422
136,403.68,0.044067602662381584,0.23775993802766254,50.34482740300713
137,404.08,0.04333807721572484,0.21429308583985196,49.897185137401955
138,404.47,0.042356566321452904,0.19151369834302082,49.46134269856318
139,404.83,0.04166946623290144,0.17044299456262402,49.05877763463745
140,405.21,0.04010234867318783,0.1481554389534152,48.63339616010469
141,405.56,0.038876989462833536,0.12760724966287312,48.24151938865903
142,405.9,0.03768260521609827,0.10762178830713365,47.860682461679126
143,406.23,0.047256286311093416,0.12566254081001033,47.49104662078687
144,406.56,0.056829967406088554,0.14370329331288703,47.12141077989461
145,406.9,0.06669376004941688,0.16229073528554788,46.74057385291471
146,407.23,0.07626744114441202,0.18033148778842456,46.37093801202245
147,407.57,0.08613123378774033,0.1989189297610854,45.99010108504255
148,407.9,0.09570491488273548,0.21695968226396212,45.62046524415029
149,408.23,0.10525443422364412,0.2350431206829675,45.25061829020675
150,408.56,0.11546115840694997,0.25286104095804685,44.88113860394062
151,408.89,0.12555074763737759,0.2706521735867931,44.512037562640835
152,409.22,0.13496787263986196,0.28861671270039563,44.14313171289907
153,409.55,0.14467899426806344,0.30656362748017396,43.773807094389696
154,409.89,0.1549034180720125,0.3250355043761745,43.39300340531138
155,410.21,0.16424684360774053,0.34255067576565723,43.03433669418337
156,410.55,0.1742414481648561,0.36108754971366264,42.65356634030593
157,410.88,0.18346973636095454,0.3791527792483988,42.284387703756195
158,411.24,0.19414301400263959,0.39877898827803804,41.88106151820546
159,411.62,0.20499634563264651,0.4195978847298055,41.455455191610234
160,411.96,0.229048906048984,0.41096046774900463,41.0746495309724
161,412.3,0.2531014664653215,0.40232305076820374,40.69384387033457
162,412.64,0.277154026881659,0.3936856337874029,40.313038209696735
163,412.98,0.30120658729799654,0.385048216806602,39.9322325490589
164,413.32,0.32525914771433406,0.37641079982580117,39.55142688842107
165,413.67,0.35001913637821086,0.36751934116909435,39.159421061293884
166,414.1,0.3804385510224024,0.35659554910514035,38.67781390225192
167,414.61,0.41651739164690865,0.3436394236339391,48.10660541129517
168,415.03,0.446256258136672,0.3329586782104151,47.636051656962316
169,415.41,0.4734025121043942,0.32349928053479726,47.20982949731741
170,415.77,0.49882207531999284,0.3140421230950252,46.80595606521151
171,416.11,0.5228587127678592,0.3049665562612417,46.423982930666
172,416.46,0.547971569994979,0.2960437434969056,46.03036162684161
173,416.81,0.5728887808390468,0.2866912275402735,45.63638043148119
174,417.17,0.598481254117042,0.2771640028977141,45.231564204406865
175,417.67,0.6341558917284175,0.2643444806089056,44.66991852737414
176,418.14,0.6674006265198441,0.2519042011141261,44.142123356643516
177,418.5,0.693008687953886,0.24253000311787196,43.73767250593955
178,418.85,0.6788657534187009,0.26039652584555634,43.344456401088465
179,419.2,0.6647228188835157,0.2782630485732407,42.95124029623738
180,419.55,0.6505798843483307,0.29612957130092504,52.558024191386295
181,419.9,0.6366997639394987,0.3140262309321237,52.16528095562164
182,420.25,0.6150039297275932,0.3268280459865366,51.772537719856984
183,420.61,0.5926882145382047,0.33999562718536136,51.36857324878476
184,420.95,0.5716122613037823,0.35243167609536247,50.98705124832767
185,421.32,0.5486766651369108,0.36596502343859905,60.571865541947886
186,421.68,0.5264960205557928,0.3791656435810713,60.16827868970695
187,422.03,0.5051290354861875,0.39221943141432825,59.77575987003599
188,422.38,0.48420087469403683,0.4055441264815868,59.383752010129434
189,422.73,0.46352775400115187,0.41915862699734535,58.99145863942405
190,423.08,0.44267157085514225,0.43248339270163283,58.59971368153541
191,423.43,0.42143327867599034,0.4455170930486417,58.20775467371155
192,423.81,0.39904436846142377,0.4601598176634951,57.7826238390857
193,424.18,0.3771523606348757,0.4743288615815069,57.368716573349595
194,424.53,0.3565450604507158,0.48777958018952566,56.97735094915674
195,424.88,0.3360736653711621,0.5014819546572069,56.585409820693435
196,425.22,0.3159543923238556,0.5145063728993619,56.20503664338276
197,425.59,0.29355399255727604,0.5282490771400437,55.79101633564835
198,425.95,0.27135631784278474,0.5411529973313101,55.38853700866513
199,426.3,0.2495811490470889,0.5535305431496258,54.99715202565348
200,426.65,0.22751884670507325,0.5655873124156794,54.60588541027342
201,427.0,0.20551610102196927,0.5777762222380578,54.214349043105585
202,427.35,0.18353074803806402,0.5900136842384636,53.82269487071921
203,427.69,0.18407412077700927,0.5700705824018395,53.44223081754387
204,428.04,0.1846334750671,0.5495409187464912,53.0505766451575
205,428.38,0.18517684780604526,0.5295978169098672,52.67011259198216
206,428.74,0.1857521836472814,0.5084815914357946,52.26726830038475
207,429.08,0.1862955563862267,0.48853848959917057,51.88680424720941
208,429.44,0.18687089222746284,0.4674222641250981,51.483959955612
209,429.8,0.18744622806869898,0.4463060386510255,51.08111566401459
210,430.15,0.1880055823587897,0.4257763749956773,50.689461491628215
211,430.5,0.18815411911656976,0.4052717294711137,50.29799292806642
212,430.86,0.1874735582169397,0.38411328508241505,49.8948672520295
213,431.21,0.18719634458920495,0.36351851572767013,49.502817116399896
214,431.55,0.1869140169282012,0.3435837216508407,49.12242568170895
215,431.91,0.2142789656249889,0.3386490391345842,48.71965828027147
216,432.26,0.24088377685797693,0.33385143113266813,51.661412195540585
217,432.61,0.26731135240811227,0.328454293725694,51.26970420246261
218,432.96,0.29386227066954784,0.3231560338806749,50.87758899939203
219,433.31,0.26667221752898657,0.326114235982622,50.48547379632145
220,433.69,0.23716269558996875,0.3288233158947691,50.06022798736661
221,434.05,0.2116288091423263,0.3377382386101875,49.657363536777815
222,434.41,0.18609492269468386,0.34665316132560586,49.25449908618902
223,434.75,0.2109010573260042,0.3538560012489135,48.87401599396627
224,435.1,0.23643678415236338,0.36127068940525947,48.48234222256049
225,435.44,0.2612429187836838,0.36847352932856703,48.101859130337736
226,435.79,0.28677864561004296,0.3758882174849131,47.71018535893196
227,436.17,0.31450314902151866,0.38393845034037444,47.28493954997712
228,436.52,0.34003887584787784,0.3913531384967205,46.89326577857134
229,436.86,0.3648450104791982,0.39855597842002805,46.51278268634859
230,437.21,0.39038073730555745,0.40597066657637415,46.12110891494281
231,437.56,0.4159164641319167,0.4133853547327201,49.06276847687037
232,437.9,0.40822299581952776,0.3942877629450204,48.682285384647614
233,438.24,0.4005295275071389,0.3751901711573207,48.30180229242486
234,438.59,0.3926097807149739,0.3555308854935122,47.91012852101908
235,438.96,0.38423747696325655,0.33474821207748606,47.496073391247265
236,439.54,0.37111332513624024,0.30216996726317485,46.84701399863198
237,440.13,0.38446375544303263,0.3353099059535949,51.18676392683367
238,440.49,0.3928715040153543,0.35540050621095515,50.7843271609281
239,440.83,0.40147901258132124,0.37416802445613534,50.40450617440559
240,441.17,0.4097032344585724,0.3930412914017358,50.02462851606497
241,441.52,0.4250221441136596,0.37613634577440935,49.63357798542022
242,441.88,0.4407787369017492,0.3587484017005878,49.23135458247133
243,442.22,0.4556599634238338,0.3423264545197563,48.851476924130715
244,442.57,0.4709788730789209,0.3254215088924298,48.46042639348596
245,442.91,0.4858600996010055,0.30899956171159837,48.08054873514534
246,443.27,0.5124298710149939,0.31569987306402947,47.67832533219646
247,443.62,0.5382615932230382,0.3222140646566708,47.2872748015517
248,443.99,0.5655694138429707,0.32910049576889167,46.87387852629868
249,444.35,0.5921391852569591,0.33580080712132276,46.4716551233498
250,444.7,0.6179709074650034,0.3423149987139641,46.08060459270504
251,445.05,0.6438026296730476,0.3488291903066055,45.68955406206029
252,445.4,0.6696343518810919,0.35534338189924686,50.298503531415534
253,445.74,0.6437730406331833,0.35109575802359744,49.918625873074916
254,446.09,0.6171511025838655,0.3467232040339583,49.52757534243016
255,446.47,0.6155870408493856,0.3688837776107264,49.103006194873004
256,446.83,0.6141052981535625,0.3898780052097698,48.70078279192412
257,447.18,0.6124028141960532,0.41020801529588935,48.31017745836421
258,447.52,0.6113729224980478,0.4300562175020616,47.93025125410073
259,447.85,0.6099039111478728,0.44932397449323924,47.561369957696236
260,448.2,0.5936015323491548,0.46573984701756316,47.17013221908541
261,448.54,0.5777649358018289,0.4816866946126207,46.79007270157775
262,448.88,0.5619283392545029,0.4976335422076782,46.41001318407009
263,449.22,0.5460917427071768,0.5135803898027357,51.02995366656243
264,449.57,0.5302760854433731,0.5302457412950285,50.638800412610024
265,449.91,0.515346405876659,0.5465701450112083,50.25930717847491
266,450.26,0.4995572539592628,0.563171114406091,49.86856332500202
267,450.6,0.4842029914403997,0.5793974936855412,49.48841838814081
268,450.95,0.467890645853346,0.5957192734324552,49.097634420115355
269,451.31,0.4506988659309757,0.6121835002357703,48.69612385466984
270,451.74,0.42954095170486817,0.63159525441731,48.21594110887141
271,452.09,0.4119517296999288,0.6470847702890136,47.825491064316985
272,452.44,0.3943850270148116,0.6624932702464138,47.43550559901899
273,452.78,0.37783965013730064,0.677811600985364,47.056535490112616
274,453.14,0.3610259278469296,0.6943742124178425,46.65563567451474
275,453.48,0.3455055349777689,0.7101597184024981,46.27730946855819
276,453.85,0.328525988783443,0.727394970146658,45.865052796446726
277,454.21,0.31143421964027607,0.743827834246305,45.46399600183001
278,454.55,0.2959091493793528,0.7091134866895532,45.085537087677174
279,454.9,0.322407089687081,0.7054327597101014,44.69594702899043
280,455.24,0.3481479459860169,0.7018571963586341,44.317488114837595
281,455.59,0.37464588629374507,0.6981764693791823,43.92789805615085
282,456.21,0.32775020243858316,0.6914824708965395,43.23776709504862
283,456.78,0.284574978978072,0.6849513288915106,42.602538332305336
284,457.12,0.2587501088953068,0.6813304887778691,42.2236299475111
285,457.45,0.23368479381497587,0.6778161439616877,41.85586592697552
286,457.77,0.20937903373707922,0.6744082944429661,41.49924627069859
287,458.1,0.1843152653657508,0.6710187098713906,41.13163376302816
288,458.44,0.15864705743632443,0.6673606372549948,40.75342021052627
289,458.77,0.14918762573887062,0.6497141040354129,40.38633058603914
290,459.1,0.13972819404141684,0.6320675708158308,40.019240961552015
291,459.44,0.12998211289858563,0.6138862941653522,39.641027409050125
292,459.78,0.12023603175575442,0.5957050175148738,39.262813856548235
293,460.12,0.1104899506129232,0.5775237408643953,38.884600304046344
294,460.47,0.10045722002471462,0.5588077207830204,38.49526282352969
