,t,x,y,energy,sight
0,520.036,0.521265707865527,0.9463342904228534,49.941892834448225,85.82602968169923
1,520.09,0.5207305694474753,0.9424377488728757,49.88582351509178,85.82602968169923
2,520.142,0.5201890501199589,0.9386927186974668,49.83185302830064,85.82602968169923
3,520.198,0.519561148379229,0.9346758430423894,49.773791118517124,85.82602968169923
4,520.258,0.5190038289645676,0.9303619174017548,49.71162213427617,85.82602968169923
5,520.31,0.5184052097792585,0.926644435528966,49.657770738262315,85.82602968169923
6,520.36,0.5177910044692742,0.9230686100874248,49.60594163416975,85.82602968169923
7,520.414,0.5171887901468154,0.9191843568978374,49.54988804201184,85.82602968169923
8,520.472,0.5164442951349733,0.915019309212785,49.48962317329711,85.82602968169923
9,520.524,0.5156910329969143,0.9113123837112171,49.43566097014622,85.82602968169923
10,520.576,0.514973797633674,0.9075901420291169,49.381647379391204,85.82602968169923
11,520.626,0.5143253724541835,0.9040096744007935,49.329750964822416,85.82602968169923
12,520.676,0.5136415987176703,0.9004460950179961,49.27791933064727,85.82602968169923
13,520.724,0.5129780380260714,0.8970380456716768,49.22823389779785,85.82602968169923
14,520.774,0.5121782125859629,0.8935120396773929,49.17648549129718,85.82602968169923
15,520.826,0.5113015245988889,0.8898498880398563,49.12263246359318,85.82602968169923
16,520.876,0.5104638633375504,0.8863191614172253,49.07079989258104,85.82602968169923
17,520.926,0.5096299714492137,0.8827855174291223,49.0189547069122,85.82602968169923
18,520.978,0.5086631884757247,0.8791378311995187,48.96505045063577,85.82602968169923
19,521.028,0.5078231499830995,0.8756034577382718,48.91319165624063,85.82602968169923
20,521.078,0.5070756486491115,0.8720584815349618,48.86139623409127,85.82602968169923
21,521.126,0.5063515688775108,0.8686474506134981,48.81161487107527,85.82602968169923
22,521.174,0.50556482055312,0.8652457521068421,48.761804984281,85.82602968169923
23,521.226,0.5047240226488547,0.8615662484055365,48.70789614551529,85.82602968169923
24,521.274,0.5040517736524827,0.8581421857108316,48.65809946188454,85.82602968169923
25,521.324,0.5034004644558825,0.8545784773238747,48.60630527049758,85.82602968169923
26,521.374,0.5026836413172328,0.8510170513787937,48.55444636181896,85.82602968169923
27,521.426,0.5019997968836336,0.8473002733509079,48.50050668725892,85.82602968169923
28,521.48,0.5013842529830069,0.843424734065777,48.444494963847426,85.82602968169923
29,521.536,0.5007715389253165,0.839393629087224,48.386357858549026,85.82602968169923
30,521.59,0.5002968017936944,0.8354829735578619,48.3302485474688,85.82602968169923
31,521.648,0.4997150377630806,0.83130469912895,48.270063563547744,85.82602968169923
32,521.7,0.4993054035746747,0.8275356091845383,48.216046318265995,85.82602968169923
33,521.754,0.4988139387432768,0.8236217802885717,48.15990373055178,85.82602968169923
34,521.806,0.49841617347241646,0.8198495853407104,48.10587481266158,85.82602968169923
35,521.862,0.4978869686588786,0.815795959966113,48.047669744297934,85.82602968169923
36,521.914,0.49739431699074643,0.8120238880450783,47.9935704340444,85.82602968169923
37,521.964,0.49687254642945156,0.8083931034693386,47.94148601907861,85.82602968169923
38,522.014,0.4963927724557853,0.8047575957027122,47.88940835857591,85.82602968169923
39,522.064,0.4960216226759565,0.8010967182796662,47.837249964155795,85.82602968169923
40,522.114,0.4955717581605019,0.7974399550875211,47.78506156901446,85.82602968169923
41,522.166,0.4950078241711232,0.7936500844321424,47.73078631994925,85.82602968169923
42,522.22,0.49431549547524706,0.7897357412165198,47.67444832389668,85.82602968169923
43,522.276,0.4935989322509585,0.7856730863613622,47.616004277174014,85.82602968169923
44,522.328,0.49287472516175646,0.7819145522344494,47.56175416800698,85.82602968169923
45,522.38,0.4920827800761097,0.7781807772249234,47.50757338074619,85.82602968169923
46,522.432,0.4911906003203949,0.7744769774660065,47.45343802238056,85.82602968169923
47,522.488,0.4902804913622215,0.7704628793551411,47.395054039941606,85.82602968169923
48,522.54,0.48941778286338955,0.7667514332271778,47.34091449817905,85.82602968169923
49,522.59,0.4885054210370573,0.7632067394348767,47.288880371885575,85.82602968169923
50,522.642,0.4858596160936389,0.7659435607027837,47.23476488054036,85.82602968169923
51,522.692,0.48331557287881355,0.7685751196142327,47.18273075424688,85.82602968169923
52,522.742,0.4807715296639882,0.7712066785256819,47.130696627953405,85.82602968169923
53,522.792,0.4782274864491628,0.773838237437131,47.07866250165993,85.82602968169923
54,522.842,0.4756834432343374,0.77646979634858,47.02662837536645,85.82602968169923
55,522.892,0.47313940001951205,0.7791013552600291,46.97459424907297,85.82602968169923
56,522.942,0.47059535680468667,0.7817329141714782,46.922560122779494,85.82602968169923
57,522.992,0.4680513135898613,0.7843644730829273,46.870525996486016,85.82602968169923
58,523.042,0.4655566007193001,0.7870410356955357,46.818500333237,85.82602968169923
59,523.092,0.46312449990693405,0.7897829671764042,46.766434715810355,85.82602968169923
60,523.142,0.4606720865963038,0.792505496376337,46.71437504165769,85.82602968169923
61,523.194,0.45811864508074907,0.7953397726600573,46.66020688987134,85.82602968169923
62,523.244,0.45572327878777735,0.7981188809249237,46.60811690860804,85.82602968169923
63,523.294,0.4532619684534794,0.8008346259874276,46.556051276165185,85.82602968169923
64,523.344,0.45072365563238687,0.8034960505842517,46.50390467958521,85.82602968169923
65,523.396,0.448033820418959,0.8062005327971793,46.44973967200695,85.82602968169923
66,523.448,0.4453288578228867,0.8088807955129973,46.395615644290665,85.82602968169923
67,523.498,0.44279157938736324,0.811526485943659,46.34354639761988,85.82602968169923
68,523.556,0.4398689362629016,0.8145970551922217,46.28322988934593,85.82602968169923
69,523.612,0.4371369648869604,0.8176367151426673,46.225031660348755,85.82602968169923
70,523.662,0.43474520330024913,0.8204021121554421,46.17302317628047,85.82602968169923
71,523.714,0.43233312110472594,0.8233272580523376,46.119005272774864,85.82602968169923
72,523.766,0.4299446542538239,0.8262870303421994,46.06491118382808,85.82602968169923
73,523.816,0.4276056753496625,0.8291110984636589,46.01283432330504,85.82602968169923
74,523.866,0.4252520328869731,0.8319061129980913,45.96084002652348,85.82602968169923
75,523.916,0.4228737191218327,0.8346854217024833,45.90882017687183,85.82602968169923
76,523.966,0.42047186324190927,0.8374516253766341,45.85676548273791,85.82602968169923
77,524.02,0.41779981012628725,0.8403773983873911,45.80050923515569,85.82602968169923
78,524.074,0.4152008573859113,0.8433860294389381,45.744167202838675,85.82602968169923
79,524.128,0.41267037455083244,0.8464445207324751,45.687864401656476,85.82602968169923
80,524.182,0.4102096110919568,0.8495663127425601,45.63152677565278,85.82602968169923
81,524.236,0.4077162228518792,0.8526520623313267,45.5752391962318,85.82602968169923
82,524.29,0.40522670323843846,0.8557526619864813,45.51889313178478,85.82602968169923
83,524.342,0.40277414886941515,0.8587083939436404,45.46455929668646,85.82602968169923
84,524.394,0.40030421035629615,0.8616495115601104,45.41022596586383,85.82602968169923
85,524.448,0.39771116099685605,0.8646643805848185,45.35387836108768,85.82602968169923
86,524.5,0.39526878940139537,0.8676109425762861,45.29963130199661,85.82602968169923
87,524.56,0.39244312192127884,0.8709860268071703,45.237129554024754,85.82602968169923
88,524.612,0.39004876759179186,0.8739424279884813,45.18302855440836,85.82602968169923
89,524.664,0.3875789652070441,0.8768447724587137,45.12888529347825,85.82602968169923
90,524.712,0.38526772393924535,0.8794846229176632,45.07896558407859,85.82602968169923
91,524.764,0.3828025214087263,0.8823603856519722,45.02497080436722,85.82602968169923
92,524.814,0.38045373946386296,0.8851408283803783,44.97306785236239,85.82602968169923
93,524.864,0.37812457840580016,0.8879308617054524,44.92119865143803,85.82602968169923
94,524.914,0.375796879198664,0.8907282373182085,44.86929934348047,85.82602968169923
95,524.962,0.3736303219973669,0.8934705974788185,44.8194674861068,85.82602968169923
96,525.014,0.37127923963466347,0.8964489938969171,44.765429491078805,85.82602968169923
97,525.062,0.36919248195482546,0.8992617059007719,44.71555062327595,85.82602968169923
98,525.114,0.36694390473664745,0.9023157754826079,44.66152527542209,85.82602968169923
99,525.166,0.3646931332948121,0.9053764947802732,44.60745732626326,85.82602968169923
100,525.214,0.3625532248208512,0.9081409812181412,44.55761898345762,85.82602968169923
101,525.264,0.36037405842053055,0.9110602615838588,44.50569553287607,85.82602968169923
102,525.314,0.35813679620492633,0.9139371691707115,44.45376244332628,85.82602968169923
103,525.37,0.3557167436835368,0.9172279660159945,44.39557768670596,85.82602968169923
104,525.424,0.3534631157198892,0.9204540920783518,44.339494280326456,85.82602968169923
105,525.478,0.35111016208208395,0.923613428592614,44.283385622339694,85.82602968169923
106,525.534,0.34868087833416583,0.9268871972269326,44.2252534188675,85.82602968169923
107,525.588,0.3464152995818029,0.9300973359392503,44.16920979936543,85.82602968169923
108,525.644,0.34408505366141584,0.9334328655111095,44.11112723458068,85.82602968169923
109,525.696,0.34189484294348166,0.9364994473879383,44.05725635853774,85.82602968169923
110,525.752,0.33948540772926233,0.9397776030492423,43.99917703492957,85.82602968169923
111,525.804,0.33718561741732667,0.9427599690542341,43.945320943048955,85.82602968169923
112,525.856,0.33494120611425265,0.9457892279783527,43.891439162534525,85.82602968169923
113,525.908,0.332641780507852,0.9487603205730715,43.83764159415845,85.82602968169923
114,525.958,0.3304988893603957,0.9516685748788876,43.785913121931834,85.82602968169923
115,526.008,0.32830165953273677,0.9545445229513115,43.73414131109253,85.82602968169923
116,526.06,0.32596784063742223,0.957507338717664,43.680250029362455,85.82602968169923
117,526.112,0.3235735306391279,0.9604376579274732,43.62627869958544,85.82602968169923
118,526.164,0.3210918769964465,0.9633068705670436,43.57224698601702,85.82602968169923
119,526.212,0.3188197732862124,0.9659776743484759,43.52234095991315,85.82602968169923
120,526.266,0.31620856923860374,0.9689415752938182,43.46616310688942,85.82602968169923
121,526.316,0.3137641686240091,0.9716738875267641,43.41409109766616,85.82602968169923
122,526.366,0.31125168505833656,0.9743459123579982,43.36200890808747,85.82602968169923
123,526.416,0.3087258557960122,0.9769911307702065,43.3099925047987,85.82602968169923
124,526.466,0.3062292713619614,0.9796768340569878,43.25791585990296,85.82602968169923
125,526.516,0.3036623884433668,0.9822783445871588,43.205917179635414,85.82602968169923
126,526.572,0.3007521197583499,0.9851492455936748,43.14771226783028,85.82602968169923
127,526.622,0.29815597771391567,0.9810386579278945,43.09575956001136,85.82602968169923
128,526.674,0.2954508201392878,0.9783904107660764,43.04177842320847,85.82602968169923
129,526.724,0.2928287836514055,0.975851379203912,42.989810398389636,85.82602968169923
130,526.774,0.2902107221432684,0.9733192290111917,42.93789128176913,85.82602968169923
131,526.822,0.2876375680927886,0.9709384657902774,42.88799118171742,85.82602968169923
132,526.872,0.2850423787649991,0.9683837920567943,42.836076164127526,85.82602968169923
133,526.922,0.2824466004964424,0.9658473038987847,42.78423995125066,85.82602968169923
134,526.972,0.27986328745702804,0.9632986030196713,42.73240590269381,85.82602968169923
135,527.024,0.27713678434791317,0.9606844310771884,42.678478397245186,85.82602968169923
136,527.072,0.2745738317249215,0.958333158254464,42.62875419975515,85.82602968169923
137,527.124,0.2717736380159504,0.9558298925442174,42.57496287153268,85.82602968169923
138,527.174,0.26909792276245503,0.9533980113528872,42.52321352756216,85.82602968169923
139,527.224,0.2664248770075025,0.9509507114655549,42.47141030237057,85.82602968169923
140,527.276,0.263608183915487,0.948440535854394,42.417510746598026,85.82602968169923
141,527.328,0.2607154982448071,0.946017237907857,42.36360672845564,85.82602968169923
142,527.378,0.25797967139572664,0.9436291641353579,42.311756581744994,85.82602968169923
143,527.428,0.2551931995207256,0.9413046393637362,42.259923892519744,85.82602968169923
144,527.48,0.25222782187295356,0.9389550274397234,42.205957087559455,85.82602968169923
145,527.534,0.2491812540632743,0.9364643455254618,42.149875028239386,85.82602968169923
146,527.59,0.2460498779407537,0.9338492157837199,42.09172286348924,85.82602968169923
147,527.648,0.2428602704595543,0.9310632816204303,42.03143294976602,85.82602968169923
148,527.698,0.24017442900273359,0.9285813961527565,41.97941960375582,85.82602968169923
149,527.756,0.23708324033722766,0.9256643101646531,41.919031778605174,85.82602968169923
150,527.808,0.23424228559083674,0.9231412308477734,41.86496132091939,85.82602968169923
151,527.862,0.2313489608692755,0.9204396105948476,41.808729261087386,85.82602968169923
152,527.916,0.22843732773099784,0.9177691751964343,41.75254676059413,85.82602968169923
153,527.968,0.22564393141255015,0.9151671307947515,41.6983614085404,85.82602968169923
154,528.022,0.2226763135579084,0.912546866483374,41.64212735948414,85.82602968169923
155,528.072,0.219929785936701,0.9101153885782052,41.590042370821344,85.82602968169923
156,528.124,0.21709215291149123,0.9075466089326545,41.53579248289744,85.82602968169923
157,528.174,0.21440088535765728,0.9050402956555444,41.48364735295555,85.82602968169923
158,528.226,0.21155682402547274,0.9024920323783844,41.42945476589527,85.82602968169923
159,528.278,0.20875071228969405,0.8998865963343536,41.37519503992824,85.82602968169923
160,528.33,0.20592881705507163,0.8973043969506087,41.32096183110535,85.82602968169923
161,528.382,0.20308643487186678,0.894743255737564,41.26672215256383,85.82602968169923
162,528.43,0.200425376506137,0.8924206542418579,41.21665240216035,85.82602968169923
163,528.484,0.19749756486763853,0.8897406634584257,41.16035224584189,85.82602968169923
164,528.534,0.19476900511597683,0.8872734068711656,41.10820027229299,85.82602968169923
165,528.59,0.19169132072232167,0.8845527025370311,41.049868359977644,85.82602968169923
166,528.642,0.188754166237588,0.8821131718912852,40.99567924607126,85.82602968169923
167,528.692,0.18587686025509756,0.8798496608777755,40.94364064953733,85.82602968169923
168,528.746,0.18283176149493435,0.8773189803660939,40.88740302029063,85.82602968169923
169,528.796,0.17995229148083475,0.8750619440463316,40.835379123070766,85.82602968169923
170,528.848,0.17695112136418958,0.872715535439512,40.78124499270566,85.82602968169923
171,528.898,0.17408843043421598,0.870423544540739,40.72916635324782,85.82602968169923
172,528.95,0.17114969872414637,0.8679934343723555,40.675007938907115,85.82602968169923
173,529.0,0.1682910861598933,0.8657101191258356,40.622984361987264,85.82602968169923
174,529.05,0.16540072555459404,0.8634513121731002,40.570898593002745,85.82602968169923
175,529.1,0.16252875548408025,0.8611860075674486,40.518879719816496,85.82602968169923
176,529.15,0.1596144017848923,0.8589828001014655,40.46688906510431,85.82602968169923
177,529.2,0.15675614804015953,0.856701940198654,40.414877087205426,85.82602968169923
178,529.25,0.15391693313497584,0.8543907544097721,40.36283818543618,85.82602968169923
179,529.298,0.15123222939678163,0.8521271130506882,40.31289927712804,85.82602968169923
180,529.35,0.1483644634179429,0.8496200565992702,40.258767869891514,85.82602968169923
181,529.4,0.14565939664430783,0.8471639348258414,40.206775165871406,85.82602968169923
182,529.45,0.142972984074995,0.8446968790796492,40.15482343656745,85.82602968169923
183,529.5,0.1402135024883056,0.8422996985850325,40.10282084450573,85.82602968169923
184,529.554,0.1371683015176457,0.8397874445384632,40.04665792303628,85.82602968169923
185,529.606,0.13419435155015,0.8374315472810059,39.992623135536675,85.82602968169923
186,529.658,0.13129343876879207,0.8349888663681501,39.9385990158138,85.82602968169923
187,529.71,0.1284661924958353,0.8324690578161537,39.88460801968014,85.82602968169923
188,529.764,0.1255330964467045,0.8298663719768442,39.82861397619864,85.82602968169923
189,529.814,0.12273757419592632,0.8275340825712366,39.776704976060294,85.82602968169923
190,529.864,0.11990571338447713,0.8252646308932716,39.7248705182282,85.82602968169923
191,529.914,0.11702728137568716,0.823058026449071,39.67304961956078,85.82602968169923
192,529.964,0.1141332722881732,0.8208532722008414,39.62115669990652,85.82602968169923
193,530.018,0.11103428844184379,0.8184311906418784,39.5650867534474,85.82602968169923
194,530.068,0.10822910357866537,0.8161153805855592,39.51319752083372,85.82602968169923
195,530.118,0.10851161135733949,0.8197419806032815,39.46130828822004,85.82602968169923
196,530.168,0.10879411913601358,0.8233685806210038,39.40941905560636,85.82602968169923
197,530.218,0.1090766269146877,0.8269951806387261,39.357529822992674,85.82602968169923
198,530.272,0.10938173531565572,0.8309119086578663,39.301489451769896,85.82602968169923
199,530.324,0.10967554340547678,0.8346835726762976,39.24752464985166,85.82602968169923
200,530.374,0.10995805118415089,0.8383101726940199,39.19563541723798,85.82602968169923
201,530.426,0.11025185927397196,0.8420818367124511,39.14167061531975,85.82602968169923
202,530.478,0.11054566736379304,0.8458535007308823,39.08770581340151,85.82602968169923
203,530.528,0.11082817514246712,0.8494801007486046,39.03581658078783,85.82602968169923
204,530.586,0.11115588416572908,0.8536869567691625,38.97562507095596,85.82602968169923
205,530.636,0.11143839194440316,0.8573135567868848,38.923735838342274,85.82602968169923
206,530.686,0.11172089972307728,0.8609401568046071,38.87184660572859,85.82602968169923
207,530.736,0.11200340750175138,0.8645667568223294,38.81995737311491,85.82602968169923
208,530.786,0.11228591528042549,0.8681933568400517,38.76806814050123,85.82602968169923
209,530.836,0.11256842305909957,0.871819956857774,38.716178907887546,85.82602968169923
210,530.886,0.11285093083777369,0.8754465568754963,38.664289675273864,85.82602968169923
211,530.934,0.11312213830530082,0.8789280928925096,38.614476011964726,85.82602968169923
212,530.986,0.1134159463951219,0.8826997569109409,38.56051121004649,85.82602968169923
213,531.036,0.11369845417379598,0.8863263569286632,48.50862197743281,85.82602968169923
214,531.086,0.11404179984132512,0.8899474994683105,48.45673404575631,85.82602968169923
215,531.138,0.11444018205093712,0.893703951778388,48.4028049068465,85.82602968169923
216,531.186,0.11476905272368165,0.8971783713227399,48.3530049009362,85.82602968169923
217,531.236,0.11513308680072573,0.9008060354557241,48.30106256876843,85.82602968169923
218,531.286,0.1153936412793849,0.9044471501374002,48.24909117038378,85.82602968169923
219,531.336,0.11566385359817366,0.9080980560180153,48.19705278658727,85.82602968169923
220,531.386,0.11604067493115364,0.91175220108512,48.14493356347401,85.82602968169923
221,531.436,0.11646874045358188,0.9153990556980995,48.09282478003068,85.82602968169923
222,531.486,0.11684557872591048,0.9190398751485631,48.040790378196505,85.82602968169923
223,531.538,0.11725668584619386,0.9228220384356046,47.98668893480479,85.82602968169923
224,531.592,0.11763118470435763,0.9267597219496124,47.93047667105487,85.82602968169923
225,531.646,0.11807040147479164,0.9306801880292417,47.87433134850906,85.82602968169923
226,531.694,0.11846272148934953,0.9341622170158143,47.824441031016875,85.82602968169923
227,531.75,0.1188549950670343,0.9382254519590892,47.76627370366747,85.82602968169923
228,531.798,0.11911619620360665,0.9417110295357561,47.71643912917599,85.82602968169923
229,531.85,0.11935288931938597,0.945491953373749,47.66244082353067,85.82602968169923
230,531.898,0.11961426928358983,0.9489764872775359,47.612612824283026,85.82602968169923
231,531.95,0.12000226269832628,0.9527515670651681,47.558572018806686,85.82602968169923
