,t,x,y,energy
0,544.94,0.3367323319783935,0.28812278732212077,49.676374986174636
1,545.25,0.3547613791437419,0.3006665205765404,49.36286325403132
2,545.61,0.37569833714221107,0.315233436613931,48.99878511347778
3,545.99,0.3977984594739285,0.33060962576451,48.61448040956016
4,546.37,0.419898581805646,0.3459858149150889,53.23017570564254
5,546.78,0.4442868765268084,0.3622541306765152,52.814985022801125
6,547.18,0.4682421544641136,0.37803887688748194,52.409706827587215
7,547.54,0.48928093481394275,0.39271386413408094,52.044799872316325
8,547.92,0.5112555807060332,0.4084763769720414,51.65923828371283
9,548.3,0.5329060866199992,0.42440031667044076,51.27407561502279
10,548.72,0.5563345701185681,0.44225678993760614,50.84891249376484
11,549.12,0.5791409429386772,0.45880460728662664,50.44437846722718
12,549.52,0.6024100966128254,0.4749399252446259,50.04004459987632
13,549.91,0.6250445352540197,0.49080404400928523,49.64542940105606
14,550.28,0.6465391292005358,0.5059244559381912,49.27067218664099
15,550.65,0.6675026131382715,0.5213972913810194,48.89619069383991
16,551.01,0.6880715600375642,0.5361952697939804,48.53238276541115
17,551.54,0.7181060638635712,0.5580984643920679,47.99710994522997
18,551.87,0.7367696722480125,0.5717616442093807,47.66384131672129
19,552.19,0.755250505162955,0.584810231517656,47.34023356811938
20,552.52,0.774675192365182,0.5979875850541767,47.00643177346831
21,552.89,0.7968645326968129,0.6123399244173839,46.63248268477768
22,553.28,0.8201772962814874,0.6274888563031981,46.238509102114705
23,553.68,0.8442400389461271,0.6428414069084153,45.834649756861175
24,554.15,0.8721931468228995,0.6612536719247957,45.359718138345535
25,554.56,0.8959572301650309,0.6777179235886022,44.94590529293201
26,555.02,0.9221731406769178,0.6965592326947619,44.481568203047466
27,555.53,0.9504404401960043,0.7180934738786396,43.966587958488134
28,556.22,0.9889362239437325,0.7471437257525417,43.26938365493924
29,556.6,1.0095596887526903,0.70508376597816,42.884926308883514
30,556.95,1.0291678674329756,0.6902102955968198,42.53037061962269
31,557.46,1.0367427618716387,0.6602664699280282,42.01373232955691
32,557.81,1.0419412188393486,0.639716785645524,41.65917664029608
33,558.16,1.0471396758070586,0.61916710136302,41.304620951035254
34,558.5,1.052189605432834,0.5992045509171589,40.96019542432474
35,558.87,1.057685117084413,0.5774805989613688,45.58537940996329
36,559.22,1.0633839246921122,0.5569650647810998,45.23056929019802
37,559.66,1.0706236076367193,0.5312635325369374,44.78500802969979
38,560.11,1.0791252745262205,0.5051494096428374,44.329221482541904
39,560.51,1.0863548688513682,0.4818524444319359,43.92391693650282
40,560.88,1.0932180283137243,0.460368428734024,43.54922538046527
41,561.24,1.099649381841245,0.43936285353563953,43.1842938196934
42,561.63,1.1062416797162087,0.4165393088690269,42.788921611999974
43,562.02,1.0897221020148564,0.39674397394992145,42.39354940430655
44,562.41,1.0732025243135042,0.376948639030816,41.99817719661312
45,562.87,1.0537178942042167,0.3536002952800762,41.53184074651318
46,563.5,1.0270324225328014,0.3216232157953674,40.89316256485457
47,564.32,1.0617658935971832,0.3632441763945122,50.06186715380685
48,565.08,1.0977025837190728,0.3265758585883044,49.29139823625043
49,565.53,1.1189808870807179,0.3048643546241024,48.835199535065705
50,566.11,1.1464062558579495,0.2768806384035754,48.24721009798317
51,567.09,1.1927456720677545,0.22959780754820214,47.253710704292
52,568.01,1.1492433629728356,0.27398577120834844,49.65437113742545
53,568.41,1.1810669360146704,0.2759905422865637,49.24886118081681
54,568.76,1.2089125624262758,0.27774471698000214,48.89403996878425
55,569.09,1.2351670101857897,0.27939865311952977,48.55949425458212
56,569.43,1.2419422512385054,0.2596840227450008,48.21481079146477
57,569.78,1.2489167640868892,0.23938955030063275,47.85998957943221
58,570.14,1.2560905487309413,0.21851523578642557,47.49503061848443
59,570.52,1.2636628769663294,0.19648123713254023,47.109796159706214
60,570.97,1.2730362878991694,0.17053495856547146,46.65400638546634
61,571.4,1.281189444252816,0.14548892299668958,46.2178682555411
62,571.77,1.2880929655368767,0.1239265385854819,45.84264378586114
63,572.12,1.2949001303820835,0.10350610930751698,45.487238894918235
64,572.46,1.3023114017765625,0.08376292007593132,45.141584175284855
65,572.9,1.3120152225525306,0.05825795167212362,44.69439603768621
66,573.38,1.323556328252401,0.030769164087077007,44.207289306414516
67,573.73,1.292666386244254,0.01073862286457231,43.85165668578892
68,574.1,1.2839485308854546,0.04178785710945029,43.47590004054265
69,574.46,1.2757676406170657,0.06252941457386028,43.110470774311175
70,574.81,1.2686000854085349,0.08283136305008001,42.75536904160405
71,575.15,1.2611071795101618,0.10246477410700403,42.410283187362616
72,575.49,1.252894091333525,0.12194763632627784,42.06512313897655
73,575.83,1.2290999389151172,0.11199478222285478,41.71996309059049
74,576.18,1.2046059584844033,0.10174919711638986,41.36465127607542
75,576.51,1.1815116340783016,0.09208907401600866,41.029642993818356
76,576.86,1.1570176536475878,0.08184348890954378,50.67433117930329
77,577.2,1.1335712962148567,0.07130439219909068,50.32873783494718
78,577.54,1.1103278554306801,0.060403567491227425,49.9827663299155
79,577.88,1.0870044420810185,0.04964296628062243,49.63694162128329
80,578.22,1.0631510610244637,0.03938695112851418,49.29057904684578
81,578.54,1.040486532772425,0.029998060361988897,48.96452246064792
82,578.88,1.01351635968575,0.034066212509682794,48.618087337812696
83,579.2,0.9881326673688792,0.037895061589865275,48.29203075161484
84,579.53,0.9619557346671063,0.04184356220380346,47.9557848970983
85,579.87,0.9349855615804312,0.04591171435149736,47.60934977426307
86,580.21,0.9080153884937562,0.04997986649919125,47.26291465142785
87,580.57,0.8794587346372766,0.054287321714396555,46.89610099195526
88,580.92,0.8518079522464522,0.058460726544623684,46.540024785821295
89,581.27,0.8240665983135552,0.06251853660251908,46.18366591173986
90,581.66,0.7933309714921178,0.06729429684531715,45.78708858702966
91,582.05,0.7626693996194905,0.07273896351968658,45.38993073534526
92,582.43,0.7328626806636903,0.07840387022995282,45.00272832379645
93,582.76,0.7070891770013578,0.08379996818195344,44.666205021940215
94,583.09,0.6812547923380223,0.08922795520453256,44.32934532381204
95,583.43,0.6548307519085754,0.09542234779905975,43.982072565950425
96,583.79,0.6269959410291907,0.1020659588173574,43.61486596222186
97,584.14,0.5998802737226766,0.10861234635556294,43.257442110448295
98,584.48,0.57338158316565,0.11434454538890608,42.91067738647335
99,584.81,0.5476702760789559,0.11967354618305684,42.574556661206216
100,585.13,0.5229555806481334,0.12522934217435316,42.24893683290672
101,585.45,0.5118109795940108,0.10777691353999934,41.92331700460723
102,585.78,0.500318109756947,0.08977909651082194,41.58752155667338
103,586.1,0.4891735087028245,0.0723266678764681,41.261901728373886
104,586.43,0.4776806388657606,0.0543288508472907,40.92610628044004
105,586.76,0.46618776902869674,0.0363310338181133,40.59031083250619
106,587.09,0.4546948991916329,0.01833321678893591,40.25451538457234
107,587.41,0.44355029813751035,0.0008807881545820795,49.92889555627285
108,587.74,0.431712524080938,0.04816725612585293,49.59352169241209
109,588.08,0.4190254432687172,0.06639654506093343,49.24753069241607
110,588.4,0.4068241604056902,0.08340953740874041,48.9221208860901
111,588.87,0.389671389187173,0.10864724141147279,48.44446860059209
112,589.4,0.36999845593045694,0.1371055300072582,47.90512133192509
113,589.78,0.3559530801889334,0.15759586997944228,47.51806039542661
114,590.1,0.344714697018478,0.17509534351032893,47.19197426841476
115,590.44,0.3321691643640642,0.1934878137436633,46.8453673844886
116,590.78,0.3200345079697253,0.21197411657686677,46.49910847539258
117,591.12,0.30849406322846207,0.23075019427264976,46.15240236788751
118,591.46,0.29713216044751783,0.24953584075709476,45.80599697003212
119,591.79,0.2864561337297263,0.26787942303281004,45.46982051148033
120,592.12,0.27639564130005595,0.28637748628058857,45.13388224631565
121,592.45,0.25517019176731626,0.29844784694019133,44.79794398115097
122,592.78,0.2339447422345766,0.31051820759979415,44.462005715986294
123,593.1,0.21336248814222294,0.3222227997545605,44.13624739825085
124,593.44,0.19149384316909718,0.33465892891899973,43.790129185656944
125,593.8,0.16833880731519935,0.34782659509311187,43.42365107820457
126,594.15,0.14582696690168753,0.36062849276238756,53.06735291818143
127,594.48,0.1247341215835397,0.3728950079537684,52.73115586329246
128,594.81,0.10363284147650674,0.3851011168454088,52.39516328291904
129,595.13,0.08303023047247561,0.3968831517318393,52.069027193010506
130,595.47,0.06070460696951458,0.40884141714288136,51.72295516866834
131,595.79,0.03954920902930528,0.41983266775160877,51.39764927923245
132,596.12,0.017510186549758326,0.4309114859158987,51.06221722870448
133,596.45,0.045944571821817805,0.442412102870595,50.726249529869015
134,596.8,0.06897206424220552,0.45465201154603,50.370081970101616
135,597.14,0.09167374537447491,0.46621132466291615,50.023987810274896
136,597.47,0.11395731932319476,0.47721504242086576,49.68784395352108
137,597.82,0.1373685458607268,0.48928301146293496,49.330795764611295
138,598.15,0.159085550515726,0.5010225172880337,48.99421902688601
139,598.5,0.14239565430579512,0.5182493320512466,48.637243698995555
140,598.86,0.12522890391843766,0.5359683415219798,48.270069076022516
141,599.22,0.10806215353108016,0.5536873509927129,47.90289445304948
142,599.55,0.09232596567600246,0.569929776340885,47.56631771532419
143,599.89,0.07611292364349816,0.5866643963965774,47.21954168251632
144,600.23,0.059899881610993876,0.6033990164522699,46.872765649708455
145,600.58,0.043209985401063015,0.6206258312154828,56.515790321818
146,600.92,0.05383009018246722,0.6397168060006264,56.169014289010136
147,601.29,0.06538726303281886,0.6604922785609297,55.79164037095451
148,601.63,0.07600736781422306,0.6795832533460734,55.444864338146644
149,601.99,0.08725218464159219,0.6997972266479902,55.077689715173605
150,602.33,0.09787228942299633,0.7188882014331339,59.73091368236574
151,602.67,0.10822039429245857,0.7379821290493292,59.38461735715064
152,603.01,0.11932987557359867,0.7118575458834467,59.03797804090745
153,603.36,0.13019165143694486,0.6921516333240082,58.68081699356252
154,603.73,0.14126449507301364,0.6711127958617451,58.302755676360306
155,604.08,0.15204540986683765,0.6512671556063729,57.94491469764949
156,604.43,0.16328254949747883,0.6315481176194331,57.58697796894747
157,604.77,0.17473425913646037,0.6126589318830306,57.23979097479241
158,605.12,0.18599916750141296,0.5930057134807669,56.88218890920924
159,605.46,0.1971253560072214,0.5739197220093212,56.534487891996775
160,605.8,0.20764116118631967,0.5546829108711353,56.18704070555336
161,606.14,0.21881211591392538,0.5355995439770874,55.83926884387703
162,606.48,0.23069521029794737,0.5167617791672832,55.491509043474565
163,606.83,0.25780571575362693,0.5099216711925867,55.1335210136485
164,607.18,0.2847887667559715,0.5029248589728146,54.77578827038967
165,607.52,0.310994282246217,0.4962083773601864,54.428473694116086
166,607.86,0.33736581848813113,0.48961253193239795,54.080651041556756
167,608.2,0.36363124068903313,0.48274927136479545,53.73275821844766
168,608.54,0.3898468859666526,0.4757518602468724,53.38480558683412
169,608.88,0.37795122360684735,0.4946184969151141,53.03685295522058
170,609.22,0.3660555612470421,0.5134851335833559,52.688900323607044
171,609.55,0.35450977130958405,0.5317968691731199,52.35118159292332
172,609.88,0.34282952788676435,0.5500588111667946,52.013473059824044
173,610.21,0.3312224873363351,0.568400006045094,51.675458069174844
174,610.56,0.31955749282559615,0.5881258923200458,51.3166612415467
175,610.9,0.3073925815650538,0.607079754578845,50.967648244128185
176,611.25,0.2945903482399976,0.6264050252529026,50.608850362817506
177,611.63,0.28162979005707844,0.647614685754186,50.21992391387687
178,611.98,0.2699763171318182,0.66718783866398,49.86204262480034
179,612.33,0.25838033757445833,0.6868523499993149,49.503739098108994
180,612.68,0.24607685540888094,0.706365302263604,49.144904760721765
181,613.03,0.23303398477866688,0.7255431597216073,48.78643016493544
182,613.38,0.2202977217860109,0.7448591816433567,48.42782595086166
183,613.75,0.20662296963350665,0.7035603884174738,48.048789799111425
184,614.11,0.1929476465103988,0.6839236146849607,47.680007361034654
185,614.47,0.17951031946781348,0.6641038326647511,47.31070713808788
186,614.83,0.16573661056760072,0.6444768185401293,46.94176072347176
187,615.18,0.15291676405367657,0.6251519874453649,46.582927722460816
188,615.52,0.1404623366963411,0.6064526224830441,46.23476524736073
189,615.88,0.1268159533515539,0.5868851372284392,45.866440156757704
190,616.23,0.13213461259319634,0.5657898634162132,45.508346318671435
191,616.61,0.13790915691269384,0.542886423277225,48.45289205636825
192,616.98,0.143531739539573,0.5205857052471576,48.07433571324848
193,617.33,0.14885039878121537,0.4994904314349317,57.71624187516221
194,617.68,0.15434033441643083,0.478439450993476,57.35827112927094
195,618.04,0.1608433672779275,0.4569565060253563,56.99028446657738
196,618.39,0.1677605846751675,0.4361398819198897,56.63229147979703
197,618.74,0.17450396475572796,0.4153382633444226,56.274591202748276
198,619.1,0.18087854270647327,0.3939336155128135,55.90722885910594
199,619.45,0.1866368283827439,0.3731412822538213,55.55062620936659
200,619.8,0.19204312582379282,0.35223493092035774,55.19364076821859
201,620.16,0.1978622806459243,0.3306981319686434,54.82600655654104
202,620.51,0.17000133105817508,0.32624881045679105,54.46858440629897
203,620.86,0.14214038147042588,0.32179948894493876,54.11116225605691
204,621.21,0.11427943188267668,0.3173501674330864,53.75374010581484
205,621.59,0.08403040090169184,0.3125194755059325,53.36568177126631
206,621.97,0.05378136992070699,0.30768878357877855,52.97762343671778
207,622.34,0.024328366070800685,0.30298521512339177,52.599777163604735
208,622.7,-0.004194346931448127,0.2978381238665541,52.231963906231805
209,623.06,0.07426623607250549,0.2922787380006394,51.86405586328115
210,623.42,0.10277964280133685,0.28667534465449124,51.495574175553955
211,623.81,0.13382950421096987,0.28100639580317505,51.09626891504159
212,624.19,0.1642574154963576,0.2759264743812562,50.70703221555073
213,624.54,0.19251204453695558,0.2717078636449679,50.3480571339315
214,624.9,0.22164802343541803,0.26805996245402436,49.97927211356685
215,625.25,0.1989536793756565,0.28125925523216383,49.62073112154567
216,625.84,0.1599391688977766,0.3027616187101804,49.01631236247102
217,626.44,0.1213313788177686,0.32567854494888204,48.40164921764934
218,626.81,0.09752324160176368,0.33981064946274797,48.02260694500931
219,627.15,0.07564549388975915,0.35279690766467886,47.67429782961036
220,627.5,0.0531242830097545,0.36616511463725476,57.31574432846438
221,627.86,0.03054160537131505,0.3803729830034951,56.94726160216703
222,628.21,0.008167300373098436,0.39378198077739374,56.589097515521864
223,628.56,0.05617140356820082,0.4069225259150023,56.23087134785619
224,628.92,0.07963548344019723,0.4204327032762964,55.86188422391878
225,629.27,0.10236483178928385,0.43370480627693037,55.502924642067704
226,629.62,0.12483689407065775,0.4472644748018772,55.14379125066345
227,629.97,0.14769833266416457,0.46043099490738487,54.78474342393656
228,630.32,0.1706612767007479,0.4735927934892912,54.42532719557023
229,630.67,0.19353652755249762,0.48684020914820775,54.065910967203905
230,631.02,0.21641177840424733,0.5000876248071244,53.70649473883758
231,631.37,0.23928702925599707,0.5133350404660411,53.34707851047125
232,631.73,0.26281585870351104,0.5269609537152125,52.97739324700874
233,632.12,0.2883054239383179,0.5417223597351482,52.57690087825769
234,632.49,0.3124878319815962,0.5557267705745742,62.196946579699
235,632.85,0.28894817926030053,0.5693421646066114,61.827261316236495
236,633.21,0.2654085265390049,0.5829575586386484,66.45757605277399
237,633.56,0.23842916163324002,0.5907293951476013,66.09815982440766
238,633.96,0.20772865410274377,0.599783584623421,65.68759471798784
239,634.33,0.17965154717275256,0.6086634027008546,65.30802970555993
240,634.68,0.1528163825805299,0.6165793013934034,64.9489245929297
241,635.03,0.15756818457861502,0.6379107646020291,64.58981948029947
242,635.38,0.16206542346384847,0.6593029473570662,64.23052661623426
243,635.73,0.16668065066080126,0.6807513075412139,63.8707894862701
244,636.07,0.17064935938648537,0.7015882092124012,63.52169349770426
245,636.42,0.1754193972952752,0.7228871127538571,63.16277944141389
246,636.78,0.1802581506835126,0.744828081522072,62.79345238383246
247,637.15,0.18533146821795846,0.7014225297217151,62.41410918808215
248,637.51,0.19045983382689977,0.6795966344172647,62.0452740359596
249,637.87,0.19531947436994473,0.6577770907248162,61.67669714151936
250,638.25,0.2006235118054643,0.6346992318301072,61.287212679710905
251,639.07,0.21099413122768962,0.5847628412025976,60.44671754098963
252,639.87,0.22196900912354736,0.536093367256345,59.62637184457246
253,640.27,0.22740788494273473,0.5118497829530552,59.21681302055249
254,640.63,0.23275030875630626,0.4900916157745156,58.84822225719331
255,640.98,0.2377601738205835,0.46895469325270456,58.490133653050435
256,641.33,0.20976835924640974,0.46446633691132844,58.132045048907564
257,641.69,0.18097677854154529,0.4598497418173416,57.76372534178918
258,642.05,0.15218519783668086,0.45523314672335474,62.3954056346708
259,642.44,0.12099127521710641,0.45062068405354366,61.99687917463274
260,642.82,0.09055029462669152,0.44609446133838837,61.608310730626904
261,643.19,0.06088616657131542,0.44180929922461865,61.23000334203189
262,643.56,0.031273931113233275,0.4370383636364143,60.851319487358154
263,643.93,0.001789731752391884,0.4316868062068542,60.47240743231303
264,644.3,0.06936036796876822,0.4267453594298581,60.094093904530574
265,644.66,0.09779213149459746,0.42141397421195526,59.72642362961727
266,645.02,0.12601264861515607,0.41555560936007857,59.358874971145134
267,645.38,0.15409006002350484,0.40955168025706873,58.991735642230395
268,645.72,0.18076833787990595,0.40405696596784874,58.644553000319384
269,646.08,0.20889964591458188,0.397913450775018,58.27691772853381
270,646.44,0.22615518000717763,0.41567302174583975,57.90928245674824
271,646.81,0.24389003449123442,0.4339259141325177,57.53143509407973
272,647.17,0.2606947523137771,0.4518172496574991,57.16437469102077
273,647.52,0.2775316045262551,0.4690282917741029,56.80706492590614
274,647.88,0.2558679422982557,0.4837964551849055,56.43954631035966
275,648.23,0.2348060484654786,0.4981543918342969,56.08223654524503
276,648.6,0.21254061784225708,0.5133327820065108,55.70450907926671
277,649.34,0.16800975659581402,0.5436895623509385,59.94905414731006
278,649.72,0.14549154215961996,0.5596048722384425,59.560927030280695
279,650.09,0.12423077138915438,0.5754966664982288,59.18354484100826
280,650.45,0.1457784603719872,0.5902823095920584,58.81636217036482
281,650.81,0.16732614935482001,0.605067952685888,58.449179499721374
282,651.16,0.18827529142146301,0.6194428834715555,58.09219634770691
283,651.52,0.20982298040429584,0.6342285265653851,57.725013677063465
284,651.88,0.23137066938712864,0.6490141696592147,59.35783100642002
285,652.23,0.25284889129758975,0.6630029725377662,59.00059644044609
286,652.61,0.27564843452257387,0.6787177755352948,58.61235500257981
287,652.98,0.29754700177287824,0.6942755034033112,58.23426700297045
288,653.35,0.3196934655091113,0.7096298486754856,57.85619955199909
289,653.73,0.3428520363928674,0.724972680704542,57.46827138380518
290,654.11,0.36616375481908503,0.7402968661046501,57.07987016774626
291,654.46,0.38743752979213714,0.7142961690719727,56.72266312647604
292,654.81,0.4084915293732061,0.7000498877222626,56.3658611141202
293,655.17,0.43013804675088857,0.6853485537559031,55.99869083457966
294,655.53,0.45194205812291305,0.6707683066058215,55.63147619218618
295,655.9,0.4740706001744059,0.6556834767404981,55.25463770196741
