,t,x,y,energy
0,552.89,0.39634282011895183,0.3925317135673177,49.78266023848967
1,553.28,0.4094578872004664,0.37389434475812294,49.55389776160641
2,553.68,0.42328306885684064,0.3548633593531293,49.31889679713644
3,554.15,0.4389456421561597,0.33235184046916394,49.04323753485523
4,554.56,0.4524409163850699,0.31260996655980877,48.80254676300184
5,555.02,0.46837314603579816,0.29086572640448444,48.53301283887088
6,555.53,0.4864733736232726,0.2669669187028772,48.23432774003576
7,556.22,0.5105623650428267,0.23450003824723056,47.83042119781579
8,556.6,0.5241054460241706,0.21666164122209447,47.60756219977258
9,556.95,0.5362518618599671,0.200129378075336,47.40249513044842
10,557.46,0.553037392309968,0.175745205635345,47.10408545067114
11,557.81,0.5651349506675322,0.15918754147813438,46.898988847105294
12,558.16,0.5770643031929592,0.14253317613229174,46.693733316542335
13,558.5,0.5883075505497449,0.1262753608278911,46.49466718055925
14,558.87,0.6000148466731691,0.1084877445138912,46.27863670633539
15,559.22,0.6116684940153995,0.0917954440899836,46.07378679089305
16,559.66,0.6262918897332184,0.07070531978215346,45.81572221965286
17,560.11,0.6416180603474593,0.049154096256425805,45.55106715415016
18,560.51,0.6556915197740038,0.030220198811451448,45.31603514365678
19,560.88,0.6681089246413758,0.012557474814838765,45.099167164019214
20,561.24,0.680114950514567,0.03583530202929043,44.88857100137672
21,561.63,0.6933700290075261,0.054360440579648485,44.660126859541556
22,562.02,0.706126464667301,0.07305134669502006,44.431854313516304
23,562.41,0.718413866248644,0.09192034185349643,44.203569324598355
24,562.87,0.7336361880015685,0.11390712112989551,43.93427214796441
25,563.5,0.7544217970110461,0.14412001066135277,43.5650181201349
26,564.32,0.7814523554567592,0.18326435659846424,53.0854795061796
27,565.08,0.8071358733439333,0.21922925862315013,52.64140300125099
28,565.53,0.8222286506801264,0.24061927986011972,52.378184643829776
29,566.11,0.8409014457243005,0.2684890835195964,52.03893300696212
30,567.09,0.8708611971131167,0.31621455718329294,51.465400532436064
31,568.01,0.9004948736034326,0.3604793750708072,50.92691635250649
32,568.41,0.9131705561810787,0.3797998798490845,50.6928088783753
33,568.76,0.9237975615383378,0.3968743691362461,50.487952420590354
34,569.09,0.934414875170059,0.4127402540369899,50.2948936613732
35,569.43,0.9449709122285735,0.42920776784246273,50.0961011466243
36,569.78,0.9564574640193692,0.44583424498001023,49.8919953771521
37,570.14,0.9679693343582383,0.46304741504479574,49.68208173231613
38,570.52,0.980445299473477,0.48113097531799476,49.46028885511243
39,570.97,0.9947551943531447,0.5028244714613946,49.19705374908204
40,571.4,1.0088731929451842,0.5235106054359049,48.94480668207666
41,571.77,1.020460332184206,0.5416065316918205,48.72725461882614
42,572.12,1.0309541397785995,0.5589681128355009,48.52099612156289
43,572.46,1.0409531919149344,0.5759028864767461,48.32060893516438
44,572.9,1.0543984134820699,0.5976623829552976,48.06119335465705
45,573.38,1.068507683355036,0.621544585749754,47.77845794351562
46,573.73,1.0788275585876996,0.6388909382481343,47.572630783002474
47,574.1,1.0903566982062585,0.6569953558795512,47.35514995795125
48,574.46,1.1010113800022123,0.674809713008699,47.143524976098945
49,574.81,1.111794446757016,0.6920353416174058,46.937474867166706
50,575.15,1.1225287899623753,0.7087593894207038,46.73683180184403
51,575.49,1.1338569379714536,0.7252587721876209,46.53620510505798
52,575.83,1.1447633171004101,0.7420042527384371,46.33507830417692
53,576.18,1.1556992287041354,0.7094011590291688,46.128026763934244
54,576.51,1.1666173438687113,0.6931900134750016,45.932345068044334
55,576.86,1.1777136459001822,0.6759008620677841,45.72528222792837
56,577.2,1.1888168822624634,0.65920186294645,45.524003971198916
57,577.54,1.1994062681909445,0.6422619481443397,45.32241160340183
58,577.88,1.2096338589539086,0.6252292474497049,45.12100483258515
59,578.22,1.2204543541533222,0.6084567594292077,44.9199028257701
60,578.54,1.2300592747163064,0.5924412056872664,44.73047382114224
61,578.88,1.2396413001915512,0.5752175108327326,44.52917857034804
62,579.2,1.2485743678661125,0.5590186486632536,44.33995030711606
63,579.53,1.257422588380168,0.5422651848459592,44.145177257403674
64,579.87,1.2667576375825114,0.5249883116639882,43.94401811592265
65,580.21,1.27659070295183,0.5078503420847426,43.7427578590191
66,580.57,1.2867986999536418,0.4896191640032616,43.5295397055971
67,580.92,1.297428756086408,0.4720625327641986,43.32187420957961
68,581.27,1.3086847421136847,0.4548143153799879,43.11471235023186
69,581.66,1.3207615916952975,0.4355151941495469,42.88438091672404
70,582.05,1.2915274479157928,0.4163433474763122,42.653458594609965
71,582.43,1.2797199458343418,0.3974055306858225,42.42817703485536
72,582.76,1.269447622685306,0.3810282128662463,42.23289816214099
73,583.09,1.2592833539433588,0.3646831542412666,42.03802625930401
74,583.43,1.2493388003219679,0.34766565543700434,41.837260030725005
75,583.79,1.2386121966307988,0.32981095968403695,41.625258026220024
76,584.14,1.2281483511140778,0.3124564211431412,41.41909990797955
77,584.48,1.2185972022530327,0.2953545190242652,41.218580981164216
78,584.81,1.209539409514972,0.2786236244740428,41.023567537669145
79,585.13,1.2005656075601683,0.2623852859736038,40.83403104642524
80,585.45,1.1922747528158042,0.24599858099822813,40.64482123797762
81,585.78,1.1837823474202755,0.22905616049568858,40.44953498258226
82,586.1,1.1750124213577358,0.2128622309455309,40.2606329190735
83,586.43,1.1656274851304096,0.19618069765662668,40.0653107384715
84,586.76,1.1569382607510155,0.1793419338431346,39.87030760420572
85,587.09,1.1476529232734194,0.162644067871817,39.67507397116355
86,587.41,1.1391410568255729,0.14636945233303955,39.48615155892254
87,587.74,1.12985633401208,0.12968185738014223,39.29097972890576
88,588.08,1.1204250161114406,0.11245332614190102,39.08993253401866
89,588.4,1.111764917158974,0.09609255054568114,38.900236009889746
90,588.87,1.098874234046548,0.07212729160205669,38.621698003164184
91,589.4,1.0848940835761474,0.044950705043169566,38.30767729949009
92,589.78,1.0746086992875725,0.025627016740590085,38.083032740777526
93,590.1,1.0657622101702653,0.009458287298901052,37.89414108790357
94,590.44,1.0563025295706316,0.03886738657003808,37.69394612196427
95,590.78,1.0470358468350436,0.05602826692809735,37.493598233893685
96,591.12,1.0380348241731066,0.07319549859985323,37.2936852669911
97,591.46,1.0285087972953884,0.0901100048508259,37.0943186121827
98,591.79,1.019847499633953,0.10677002575611654,36.900430341572466
99,592.12,1.011468477587225,0.1235919622570402,36.706057132297595
100,592.45,1.0027294199325225,0.14027387432215607,36.51190235389354
101,592.78,0.9942909321978718,0.1569710043148406,36.318176200496126
102,593.1,0.9861504731834372,0.1731682279051176,36.13035603267947
103,593.44,0.9768434849290035,0.19010324807988904,35.9312730984566
104,593.8,0.9664978098713487,0.20790607758832813,35.720315446355805
105,594.15,0.9566758895918747,0.22534884755060886,35.514874255766166
106,594.48,0.9473222369242387,0.24172097806301224,35.32143312083135
107,594.81,0.9373202833524651,0.2579586940653031,35.127512386114866
108,595.13,0.9277763168391346,0.2737776049113624,34.93935087517406
109,595.47,0.9174287654756312,0.2904975809927236,34.73952488406881
110,595.79,0.9079442071703976,0.3063188646527711,34.55146677691153
111,596.12,0.8976869695872439,0.32254979785408383,34.357065988719214
112,596.45,0.8876892448795489,0.33888025024046975,34.16261466076871
113,596.8,0.8765820299063514,0.3559501779413402,33.956791528961205
114,597.14,0.866283467959277,0.3726614764229189,33.75711476062554
115,597.47,0.856858282747104,0.3890704572786927,33.56332139692353
116,597.82,0.8472472817317571,0.40667574021548986,33.357308597558465
117,598.15,0.8383276126726698,0.4233320717382523,33.162985900070204
118,598.5,0.828781733020714,0.44092077953794595,32.957189456124205
119,598.86,0.8185767790773404,0.45889966339767935,32.74546420292579
120,599.22,0.8083633492789047,0.476915677843939,32.53350435384896
121,599.55,0.7984433276314948,0.49325078503580233,32.33918104849142
122,599.89,0.7887089893369671,0.5102822531181768,32.13873409371224
123,600.23,0.7790246865517105,0.5273662433773784,31.93807228577948
124,600.58,0.768746026308902,0.5448383347732777,31.731589787219132
125,600.92,0.7590044882266527,0.5618952621489252,31.530979452049277
126,601.29,0.7485520307055109,0.5804073485577116,31.313241362844323
127,601.63,0.738615311371063,0.5974050651019562,31.112606186518033
128,601.99,0.7178689094989799,0.6094080743298126,40.90016894099608
129,602.33,0.6981466778277874,0.6207550858668262,40.699002947412076
130,602.67,0.678581377708819,0.6321478701176833,40.49825431224181
131,603.01,0.6585863094815265,0.6432317455538414,40.2970551845769
132,603.36,0.6374727624964216,0.6541929591863066,40.08953851348622
133,603.73,0.6151630990639079,0.665697136580298,39.87050779370811
134,604.08,0.5943018120040299,0.6768433581475433,39.66330156754334
135,604.43,0.5736098048697741,0.6881783400272617,39.456047566878716
136,604.77,0.5532971763853962,0.6988865239311228,39.25501793452785
137,605.12,0.5323737977113391,0.7100132200985051,39.04764116695218
138,605.46,0.5120503784026176,0.7209334404795127,38.845783934770445
139,605.8,0.49182828314438454,0.7319807539973975,38.643844635985516
140,606.14,0.4719320562634873,0.74334658439074,38.44194196926131
141,606.48,0.4519184984743143,0.7141597191480026,38.24006103829368
142,606.83,0.43102602181319394,0.7030087418288944,38.03271520373613
143,607.18,0.4099018692210466,0.6920009733442247,37.824986906365204
144,607.52,0.38920916373149644,0.681639388554139,37.62370597329217
145,607.86,0.3683025247707846,0.6716106237231864,37.42273073360168
146,608.2,0.3475243773253627,0.6613341373752573,37.22140918845508
147,608.54,0.3271565224512936,0.6507308775147963,37.02054676771148
148,608.88,0.30693650214138907,0.6400969841790635,36.82015414255611
149,609.22,0.28655721791438554,0.629715066095584,36.620048374222435
150,609.55,0.2670775825425556,0.6193217981100749,36.425854470672306
151,609.88,0.24798822071389942,0.6086357411569362,36.23207094532585
152,610.21,0.2289525792183446,0.5977653213123801,36.037783031433776
153,610.56,0.20888521783387992,0.5861928947688796,35.83201701578479
154,610.9,0.18965170937341438,0.5745939673667366,35.63170006066021
155,611.25,0.16947180708044496,0.5630681386886736,35.42568627437491
156,611.63,0.147345952931528,0.550638103790433,35.20150881145429
157,611.98,0.12680661454338488,0.5394146558868039,34.99526751866632
158,612.33,0.10642020492716255,0.5278843594821717,34.78844644767147
159,612.68,0.08565706241435483,0.5166036816336206,34.58112075907374
160,613.03,0.06480605489646571,0.5054209581036395,34.37381897788817
161,613.38,0.04411718420802682,0.4941712717280642,34.166898350992675
162,613.75,0.022205323232830036,0.4823790357428039,33.948370449400116
163,614.11,0.0009628871530588298,0.4708199011744,33.73572867405685
164,614.47,0.06211179919417916,0.4595088724341658,33.52336385834012
165,614.83,0.08301588383508703,0.44778606685277433,33.31140852728479
166,615.18,0.10352252807270051,0.43670983985962214,33.10584706200613
167,615.52,0.12326280270038638,0.42565635269424706,32.905745681507064
168,615.88,0.14395304206782494,0.41386044926183657,32.694328343064115
169,616.23,0.1642448520613842,0.40262871986889853,32.48901385271379
170,616.61,0.1865911096199599,0.3907493002078199,32.2660569065745
171,616.98,0.20792561930208586,0.37876193842002787,32.04902552030769
172,617.33,0.22809038759831396,0.36747926961287597,31.84400647470469
173,617.68,0.24796146478563572,0.3558275897486767,31.638674245175608
174,618.04,0.2685034293165256,0.3440261670624136,31.42780128345867
175,618.39,0.28835696200235245,0.33230260643342185,31.222251343588148
176,618.74,0.3078623701946329,0.3201371818838847,31.016221392714332
177,619.1,0.3283574721925762,0.30796977634292716,30.80408677318211
178,619.45,0.3486409249748971,0.2964361667887278,30.597647103623164
179,619.8,0.36908894940256426,0.2851966555569271,30.391699048093095
180,620.16,0.39046401756680676,0.2740089488790382,30.179916855126685
181,620.51,0.4056213984996169,0.25877745121884554,39.97401750085378
182,620.86,0.42096470932002866,0.24358551275250143,39.76778415948973
183,621.21,0.4362138098078906,0.22831749234231413,39.561433967762326
184,621.59,0.45216648926436687,0.2114636031916941,39.33767023872515
185,621.97,0.4674316437974165,0.19432642916563916,39.11428540726442
186,622.34,0.48193055549625974,0.1774648397299454,38.89680090801044
187,622.7,0.49578455641966424,0.16100825219246043,38.68557414107642
188,623.06,0.5096435736499092,0.14458292717203597,38.47450363433179
189,623.42,0.5239216935941066,0.12841650909764396,38.26373063994776
190,623.81,0.5397602478436915,0.11117506998247868,38.03584083822275
191,624.19,0.5546809334222733,0.09407830003154119,37.813583734638485
192,624.54,0.5690797780708933,0.07864142854270519,37.608751877941266
193,624.9,0.5841735249259864,0.06280265424810139,37.3974865744116
194,625.25,0.5990319495917039,0.047525442533717134,37.19220380623361
195,625.84,0.6230136339113216,0.021242872596299672,36.84633908729616
196,626.44,0.6483236679314994,-0.004825708365206976,36.49550793372343
197,626.81,0.6635367185294782,0.05243575648184586,36.27877951259611
198,627.15,0.6777375908754005,0.06728931483109593,36.07995087485768
199,627.5,0.6926387802860964,0.08243851379548503,35.875207290448785
200,627.86,0.7080694842997155,0.09803314737698901,35.664252805860926
201,628.21,0.7235677182270697,0.11283535560405984,35.45954043311684
202,628.56,0.7389241654368804,0.12761339293099203,35.25536924551614
203,628.92,0.7550547383781911,0.14272326623274517,35.044820684905446
204,629.27,0.7708715661371622,0.15729545585482468,34.84030310164462
205,629.62,0.7863251066696042,0.17208076282244153,34.635808252210126
206,629.97,0.8022527372011264,0.18663459694862436,34.43104502100778
207,630.32,0.8186551473003247,0.20084864663403135,34.226475814173455
208,630.67,0.834972432413107,0.21501981133030063,34.02238146303729
209,631.02,0.8519189517087734,0.22887708427664996,33.81777964039962
210,631.37,0.8683223517362807,0.24301233860575375,33.6135881727806
211,631.73,0.8855561677232757,0.2572982425141939,33.403622272472155
212,632.12,0.9044953873295856,0.27266805869370103,33.17579044099676
213,632.49,0.9227397337537536,0.28708283980313526,32.95951475520443
214,632.85,0.9402372785832461,0.3011823799558909,32.74957173060296
215,633.21,0.9572331074233507,0.3155800786932372,32.53983452652522
216,633.56,0.9739455916216755,0.3294413421120015,32.335970224309584
217,633.96,0.9927620510173476,0.3455856752222953,32.10243798424127
218,634.33,1.0102446174929576,0.3604879528571302,31.886326156900942
219,634.68,1.0267580118670014,0.3745954535161622,31.681920948578497
220,635.03,1.0430316193871072,0.38880370784439716,31.47778356008259
221,635.38,1.0588451811142336,0.4032335591910117,31.273981021801095
222,635.73,1.0745645865706135,0.41766974282194297,31.070433558809686
223,636.07,1.089221849136014,0.4320235108941734,30.8728704275024
224,636.42,1.1048376767096006,0.44646906056273694,30.66959026506699
225,636.78,1.1211489145010474,0.46116925977668854,30.460524501133747
226,637.15,1.137529404666569,0.47659526110318157,30.2452389491315
227,637.51,1.1532555841729948,0.49164989505228124,30.036172719467498
228,637.87,1.1684736050266729,0.507045191995029,29.826851071005834
229,638.25,1.1840130682711312,0.5234964453036269,29.60633666316494
230,639.07,1.2183393292100926,0.5583158289488488,29.13178501286695
231,639.87,1.252744713772199,0.5916563020276975,28.669367874270176
232,640.27,1.2697106790484547,0.608483166766028,28.4380535802798
233,640.63,1.2845492625937132,0.6237948628806406,28.230241013328488
234,640.98,1.2988623593778408,0.6387534366173943,28.02814482940545
235,641.33,1.3132691042170168,0.6536256195446443,27.826233754992565
236,641.69,1.2973584671262786,0.6690710655477217,27.619022096525427
237,642.05,1.2829986194932057,0.6844335219594646,27.412280280702017
238,642.44,1.2668285177722738,0.7008623178376043,27.1877009101658
239,642.82,1.2515811410009776,0.7172502550865032,26.96832438703443
240,643.19,1.2360431752062406,0.7329443088034057,26.75414467298828
241,643.56,1.221101410624409,0.7489956354491365,26.539781747678333
242,643.93,1.2056206109595604,0.7039406146999785,26.325148754031
243,644.3,1.189656687730176,0.6884047388826993,26.110542827430944
244,644.66,1.1742262960304368,0.6732800329371578,25.901991213351778
245,645.02,1.1582728185975357,0.6584320511881974,25.69328173946564
246,645.38,1.1429229350903531,0.6432904525692323,25.48487852362115
247,645.72,1.1289515344027328,0.628640919468529,25.287752810238143
248,646.08,1.1138787213649899,0.6132336008079965,25.07878295263351
249,646.44,1.0989745796382526,0.5977653601743482,24.86997448390631
250,646.81,1.084128487741393,0.5815300839335916,24.65490476465141
251,647.17,1.0702490281304966,0.5654928873694945,24.44587268590484
252,647.52,1.0568561516417385,0.5499294611268211,24.243062597191454
253,647.88,1.042497540086609,0.5341740213774224,24.03425617013254
254,648.23,1.0285606693113223,0.518770666529287,23.830859145834825
255,648.6,1.0130916337479738,0.5027625888883477,23.615254651871098
256,649.34,0.9824853398176796,0.47049817428953133,23.183683958735944
257,649.72,0.9666360185091458,0.45391107540258374,22.961598411223193
258,650.09,0.9515282482705636,0.4375455092354262,22.745129359701817
259,650.45,0.936813023790348,0.4216228127012479,22.53447064202231
260,650.81,0.9226336113575143,0.4054511768956849,22.323930763967148
261,651.16,0.9091796958346716,0.3894787223335927,22.118756631548198
262,651.52,0.8957471868013669,0.3729381465182299,21.90813937584785
263,651.88,0.8827235509437321,0.3562834633222776,21.697902209643186
264,652.23,0.8698625734884298,0.3402226370122169,21.493739407197925
265,652.61,0.8555153312450098,0.32284924756718547,21.27146752081487
266,652.98,0.8411533836718743,0.30606553254038227,21.05475786876037
267,653.35,0.8261679639555156,0.2895042785989722,20.837587848539
268,653.73,0.8107122722907708,0.2726035629925819,20.614943540456693
269,654.11,0.794973083115173,0.2559079129935689,20.39259857203612
270,654.46,0.7802313911026858,0.24060655728868063,20.18751994598022
271,654.81,0.7652234453132445,0.22536296056272534,19.9819859745977
272,655.17,0.7504295851693962,0.20939194057201144,19.770857982184626
273,655.53,0.7355971776941863,0.19343474855548884,19.559696939175485
274,655.9,0.7199126063497993,0.17728886405962285,19.342770790639204
275,656.26,0.7041413749000326,0.16182523466604745,19.13150232373936
276,656.62,0.7249168078778874,0.1501526185320874,18.92023385683952
277,656.99,0.7462693362162381,0.13815576306107286,18.703096821414682
278,657.37,0.7681989599150847,0.12583466825300388,21.81342455079818
279,657.76,0.7909764492181481,0.11350659871637445,21.584706137488908
280,658.39,0.8279804963725914,0.09359671335425704,21.214438640909133
281,658.9,0.8581567509039393,0.07783104349762612,20.915133600944984
282,659.28,0.8804253458100292,0.0657075674920547,20.6915691377475
283,659.65,0.9024381618198599,0.054326941302572776,20.474160439453076
284,660.24,0.937863224148984,0.03649266034798403,20.12732506353836
285,660.74,0.9674140633204095,0.020926921153802916,19.833620822037734
286,661.15,0.9913329391628136,0.007782693340323596,19.592584493242978
287,661.54,1.014480656662866,0.03558139584140307,19.363209366972793
288,661.91,1.036251049442822,0.04719550870102173,19.14589668627013
289,662.26,1.057172207363867,0.05792572955324289,18.939978773394753
290,662.62,1.0790280370054868,0.06851617301875074,18.728412252979776
291,663.01,1.1023512856892423,0.08055503233556703,18.49861885320983
292,663.43,1.12744986510242,0.09336062210310946,18.25179923541952
293,663.88,1.1545001495563743,0.10697477108303866,17.98709771199495
294,664.27,1.1776306457416181,0.11922255832665855,17.757298662568303
295,664.64,1.1990255678279464,0.13126980477822622,17.53980533746871
296,664.99,1.2187584443065669,0.14300853544171205,17.334649594166464
