,t,x,y,energy
0,556.95,0.08641915673917601,0.46311988386470204,49.630067390104166
1,557.46,0.05355273368180157,0.44814410684079486,49.09102272997024
2,557.81,0.03099734530909361,0.4378666128047802,48.72109012007441
3,558.16,0.02320737941617098,0.45677855995936045,48.351157510178574
4,558.5,0.015794103460409863,0.47509714798978164,47.99233545359601
5,558.87,0.03371748210840078,0.49508030894539046,47.60186278487041
6,559.22,0.04160992482888969,0.5139494651438002,47.2320454479042
7,559.66,0.05218457489391274,0.5374097323918934,46.76774957339334
8,560.11,0.06386938485605737,0.561172116548914,46.29290484823926
9,560.51,0.09388144084511404,0.5607609275314653,45.8708206481023
10,560.88,0.12164259263499148,0.5603805776903252,45.48039276297561
11,561.24,0.14865344302514252,0.5600105075746213,45.10051698285235
12,561.63,0.17791519761447278,0.5596095982826089,44.68898488771881
13,562.02,0.20717695220380303,0.5592086889905964,44.27745279258527
14,562.41,0.2364387067931333,0.558807779698584,43.865920697451735
15,562.87,0.2709525711805485,0.5583349123285178,48.38052386729423
16,563.5,0.3180511131101547,0.5614117610612233,47.715741252078516
17,564.32,0.37935397720900726,0.5654165483006176,46.85046864179775
18,565.08,0.322536688532022,0.5617047942738618,51.048508661537525
19,565.53,0.35548958619711307,0.5561697565191216,50.57366393638345
20,566.11,0.39813382757949417,0.5490304035821357,49.96083052343731
21,567.09,0.4709091296608674,0.5385510118309619,48.92402332735421
22,568.01,0.539603543959372,0.5289156051530133,47.94916798089038
23,568.41,0.5694870765327097,0.5253195142988318,47.52589009329083
24,568.76,0.5957158044449533,0.5222959198256977,47.155261708030615
25,569.09,0.6204020140110614,0.5189389694282316,46.805484047665566
26,569.43,0.6457874620015888,0.5152766978636587,46.445098155368775
27,569.78,0.6719089333813852,0.5113585267865484,46.0739800715106
28,570.14,0.6989578470280345,0.5077230628344376,45.691874921231175
29,570.52,0.7224642122621882,0.49497690584196946,45.28854170704734
30,570.97,0.7503006974078963,0.4798827725614152,44.81091026919806
31,571.4,0.7819107952357052,0.47325224861144094,44.354506895253195
32,571.77,0.8091638743689717,0.4680209588374586,43.962323537187785
33,572.12,0.8347713207695288,0.46293176983696177,43.591913604377226
34,572.46,0.8597452991430073,0.4579989123754468,43.23164907015992
35,572.9,0.8920999189433634,0.45185751695929655,42.76564778248691
36,573.38,0.9274190712579672,0.44570934597639267,42.25800662866954
37,573.73,0.9531993525945008,0.44149560477952765,41.88810478005399
38,574.1,0.9803588387452807,0.4366298120340944,41.496919306110556
39,574.46,1.0074005355773747,0.43466015633056443,41.11630641254396
40,574.81,1.033691074164133,0.4327452132854659,40.74626609935422
41,575.15,1.0590975860287561,0.4307780670827154,40.3873647568573
42,575.49,1.0845647385367456,0.4288763030423632,40.02821603822258
43,575.83,1.1100527963426277,0.4269001669959408,39.66891943503872
44,576.18,1.1361330177273683,0.42460529677266506,39.299623731253874
45,576.51,1.1594988121097294,0.43074555162465106,38.95143063911388
46,576.86,1.1842807152425368,0.4372579431343332,38.58213493532904
47,577.2,1.208354564000121,0.44358426631516723,38.22339053736662
48,577.54,1.2324284127577052,0.44991058949600127,37.8646461394042
49,577.88,1.2565022615152894,0.45623691267683536,37.50590174144178
50,578.22,1.2334949789787604,0.46449938105196387,37.147157343479364
51,578.54,1.2118410660032035,0.4722758218756142,36.80951555716179
52,578.88,1.1888337834666745,0.4805382902507427,36.45077115919937
53,579.2,1.1671798704911178,0.48831473107439305,36.113129372881794
54,579.53,1.144849272735075,0.49633418567378246,35.7649362807418
55,579.87,1.121841990198546,0.504596654048911,35.40619188277938
56,580.21,1.0988347076620169,0.5128591224240394,45.04744748481696
57,580.57,1.0723476359373398,0.5168235463595844,44.667600475209696
58,580.92,1.046596316205015,0.5206778474080309,44.29830477142485
59,581.27,1.0208449964726902,0.5245321484564773,43.92900906764001
60,581.66,0.992150668770957,0.5288269410533177,53.51750814056547
61,582.05,0.9636218991760608,0.533690126220977,53.1060252460435
62,582.43,0.9746586726631672,0.5534023516565634,52.705093194970814
63,582.76,0.9842432391124964,0.5705208632190462,52.35691536114453
64,583.09,0.9938278055618258,0.587639374781529,52.008737527318246
65,583.43,1.0037028134187105,0.6052766291186326,51.65000885004268
66,583.79,1.0141587040907063,0.6239513690049775,54.60351181920189
67,584.14,1.025075798566142,0.6418562424641822,54.234255380891426
68,584.48,1.036047836463436,0.6591886474086477,53.875158596611925
69,584.81,1.0460891161966006,0.6762134240204798,53.52666380026923
70,585.13,1.0563043317116037,0.6926267063230525,53.18833659080673
71,585.45,1.0669977868738827,0.6763856719165413,52.85000938134422
72,585.78,1.0780254125099828,0.6596371051848267,52.501109446586014
73,586.1,1.088718867672262,0.6433960707783155,52.16278223712351
74,586.43,1.099746493308362,0.6266475040466009,51.8138823023653
75,586.76,1.1107741189444624,0.6098989373148862,51.46498236760709
76,587.09,1.1218017445805626,0.5931503705831715,53.616082432848884
77,587.41,1.1320768107022947,0.5768473459273895,53.27827177745602
78,587.74,1.1426465244083424,0.5601007268822569,52.93033993708172
79,588.08,1.1536923091427365,0.5429128281611881,52.5719246889065
80,588.4,1.1641440883201155,0.5267725803658527,52.23468699630499
81,588.87,1.1789382171432654,0.5028989972919758,51.739547659874376
82,589.4,1.1955467394714154,0.47590500201505287,51.1809264297147
83,589.78,1.2068639939715573,0.4563508913941372,50.78039636459849
84,590.1,1.2169607601247163,0.4399834134663944,50.44257460920399
85,590.44,1.228416289123822,0.4228325653426932,50.08350471061973
86,590.78,1.2392681537782009,0.405484105097391,49.72456119956868
87,591.12,1.2506779669343788,0.3883310821419062,49.36557697244271
88,591.46,1.2669632307421899,0.4031051838804685,49.00659274531674
89,591.79,1.2827695162027124,0.41744475321495544,48.65816687781212
90,592.12,1.2983908637644188,0.43198817028421166,48.30929151136
91,592.45,1.3144086088392757,0.44636108066901226,47.96005271246759
92,592.78,1.294091863971249,0.4604296714444505,47.61078710455798
93,593.1,1.2780767705387677,0.47412122310556526,47.27181907552608
94,593.44,1.2605777713888484,0.48824671525339464,46.91211565491504
95,593.8,1.2422267389359058,0.503335627744915,46.531205749965245
96,594.15,1.2241330626188778,0.517710373053036,46.16143670146644
97,594.48,1.206863033103345,0.5310187374072585,45.813230690976404
98,594.81,1.1892658931528854,0.5439930893586236,45.465432589630005
99,595.13,1.1723518945365652,0.5567983687099303,45.12767138465963
100,595.47,1.1546045288533064,0.5706432241775271,44.768454424333044
101,595.79,1.1383998727217675,0.5840893545140439,44.43005432321184
102,596.12,1.121999435361762,0.5980618827416688,44.08156447060688
103,596.45,1.1053148576655183,0.6118820827414138,43.7328935154039
104,596.8,1.0875041669148666,0.6263698168487354,43.36352235073156
105,597.14,1.070246826080252,0.6404139746129266,43.00498881573241
106,597.47,1.0531346361259377,0.6537478983731402,42.65719217518782
107,597.82,1.0351474712792823,0.668065264260576,42.28804106344796
108,598.15,1.017937072793545,0.6814230696016554,41.93980716862721
109,598.5,1.0000727431449257,0.695865236424947,41.57047528714593
110,598.86,0.9739160822851918,0.7009383429763634,41.19059106619376
111,599.22,0.947759421425458,0.7060114495277796,40.81070684524159
112,599.55,0.9237824823040355,0.7106617971999112,40.4624796427021
113,599.89,0.8990789692698424,0.715453064498471,40.10370010069172
114,600.23,0.8743754562356494,0.7202443317970308,39.744920558681336
115,600.58,0.848945369288686,0.7251765187220188,39.37558867720006
116,600.92,0.8242418562544931,0.7299677860205787,42.35014246852301
117,601.29,0.8082864908951989,0.712923379393152,41.95970590809995
118,601.63,0.7936248038082799,0.6972609516814626,41.60092636608957
119,601.99,0.7781006645397774,0.6806772046926151,41.221042145137396
120,602.33,0.7909983519360525,0.6641648630549442,40.862262603127014
121,602.67,0.8038960393323277,0.6476525214172734,40.50348306111663
122,603.01,0.8164850368687866,0.6310282353034619,40.14482330238074
123,603.36,0.8295267472537536,0.6139658541482506,39.77570127988985
124,603.73,0.84354082647428,0.5959532519532706,39.38507797302965
125,604.08,0.8563305708482719,0.5787943817225427,39.01601439855857
126,604.43,0.8804462206033943,0.5864956244139947,38.64695082408748
127,604.77,0.9038728517940845,0.5939768315999767,38.288431923172716
128,605.12,0.9279885015492069,0.6016780742914288,37.91936834870163
129,605.46,0.9514151327398971,0.6091592814774107,37.560849447786865
130,605.8,0.9748417639305874,0.6166404886633926,37.2023305468721
131,606.14,0.9982683951212776,0.6241216958493746,36.84381164595733
132,606.48,1.021695026311968,0.6316029030353565,36.485292745042564
133,606.83,1.0459279121336358,0.6392247077047137,36.11590871272117
134,607.18,1.070472849108438,0.6463485223256036,35.74632694915965
135,607.52,1.083914005864966,0.630037215624769,35.38730466455703
136,607.86,1.0973551626214937,0.6137259089239345,35.028282379954405
137,608.2,1.1107963193780215,0.5974146022231,34.66926009535178
138,608.54,1.1242015173257722,0.5811035467216563,34.31032983333971
139,608.88,1.1380717544791827,0.5649649921386384,33.95114310616346
140,609.22,1.152521594013655,0.549092293866473,33.59183599307942
141,609.55,1.1663235936067866,0.5336707628934735,33.24361330877452
142,609.88,1.1794710719599373,0.5180045796867775,32.8957903605231
143,610.21,1.1567724735388911,0.5107350495646166,32.54796741227168
144,610.56,1.1326982024862666,0.5030249418592943,32.179064285338356
145,610.9,1.1093117677494313,0.4955351229455525,31.820701247745983
146,611.25,1.0854193332886979,0.48744302820241103,31.451614066995937
147,611.63,1.0591578038535696,0.479101110953401,31.050616828736572
148,611.98,1.035114604413598,0.47096864183757664,30.680763745530275
149,612.33,1.0107803082659301,0.4631356360538727,30.310403669630393
150,612.68,0.986305483325509,0.45568799740733407,29.9403711629497
151,613.03,0.9615206348346794,0.4486431534001075,29.569894746523065
152,613.38,0.9368045120138596,0.4416446757120013,29.19983186465565
153,613.75,0.9107362488353412,0.4343580279188136,28.809144303097543
154,614.11,0.8854695156812575,0.4272200133259165,28.42934331982975
155,614.47,0.8600742876670535,0.4204936543196747,28.049865996109407
156,614.83,0.8618293869700356,0.40033733152342743,27.670388672389063
157,615.18,0.8635357335146016,0.3807409065826314,27.301452385438726
158,615.52,0.8651933273007514,0.3617043794972867,26.9430571352584
159,615.88,0.8669484266037336,0.3415480567010393,26.563579811538055
160,616.23,0.8692564505056254,0.3220651294525206,26.19514588343707
161,616.61,0.8711491160317318,0.3008593824943025,25.7950231957944
162,616.98,0.8734864814390944,0.2802261095626162,25.405342377717435
163,617.33,0.8753681964877011,0.2607102337308438,25.036862606740026
164,617.68,0.8773745530500556,0.2411237978650632,24.667888010195895
165,618.04,0.8799763839152115,0.22094295977069195,24.28792618654493
166,618.39,0.8827220565859564,0.20135509798518864,23.918621004872158
167,618.74,0.8848681510089327,0.18179552290759027,23.549764581364894
168,619.1,0.8863633759288503,0.16172834125831925,23.17093216901184
169,619.45,0.8874419513163414,0.14216320160319265,22.80235628505357
170,619.8,0.887981682564366,0.1226393306276373,22.434124646883262
171,620.16,0.8886589544035974,0.1024661811115345,22.05477350109078
172,620.51,0.8890786797265334,0.08280461216733086,21.685671323174073
173,620.86,0.8631533669621322,0.08573852636485521,21.31656914525737
174,621.21,0.8372280541977309,0.08867244056237958,20.947466967340663
175,621.59,0.8090805717678097,0.09185783311969173,20.546727459888242
176,621.97,0.780904203273774,0.09461669037120626,20.146231022566262
177,622.34,0.75351711517455,0.09759354162183267,19.75624748363375
178,622.7,0.7267702616057731,0.10056105635288141,19.37626336298994
179,623.06,0.6999591618134641,0.10363425446997894,18.995873705629656
180,623.42,0.673106333945144,0.10649117890078971,18.615487655071405
181,623.81,0.6439794063203089,0.10891403676329774,18.20376888766986
182,624.19,0.6156567123145077,0.11143696307579136,17.80276225473692
183,624.54,0.5896786582437755,0.1140742946901114,17.433678388578937
184,624.9,0.563024808868316,0.11675899806526095,17.054389224993287
185,625.25,0.5371166434501972,0.11952059452942576,16.685528349934575
186,625.84,0.4933813874050402,0.12392120923149112,16.063664933416725
187,626.44,0.44866583282972006,0.12791693400426646,15.430508769408213
188,626.81,0.4209668969620594,0.1303940970509905,15.039459864987164
189,627.15,0.3953966788607956,0.13246134963509207,14.679709840366039
190,627.5,0.3691126244242776,0.13510197568279964,14.30916749656668
191,627.86,0.34200225974916365,0.13797720593682988,13.92754105521772
192,628.21,0.31554657665624997,0.14036473501733054,13.556385749865411
193,628.56,0.28899316838727535,0.1423545569500564,13.185042755874658
194,628.92,0.3122974543574078,0.1532310231661009,12.803089962055598
195,629.27,0.33495439905059216,0.16380536532058862,22.431746968064843
196,629.62,0.35738781446851237,0.1745598038154193,22.060696614327725
197,629.97,0.3799703452581417,0.18520098721138836,21.68942967747704
198,630.32,0.40268262054239373,0.19559150681553578,21.318477685532237
199,630.67,0.4256927363023405,0.20574606648612082,20.94707546252825
200,631.02,0.4486486140964144,0.21591128844132243,20.57586287178489
201,631.37,0.4711557774970347,0.2264701006917861,20.205182459522508
202,631.73,0.49424540417349194,0.23745339879024835,19.82373841746929
203,632.12,0.5189400218665116,0.24964513550893824,19.410775717293145
204,632.49,0.5418719206803027,0.2617300906682344,19.01909426362828
205,632.85,0.5576522589833478,0.27840986636562937,18.637998795197596
206,633.21,0.573432597286393,0.29508964206302435,18.256903326766913
207,633.56,0.5887745928587979,0.311306090657714,17.886393843570417
208,633.96,0.6063083020844036,0.3298391747659306,17.462954434202995
209,634.33,0.6225269831180887,0.34698227756603106,27.07127298053813
210,634.68,0.6381605870006323,0.36302411418109526,26.7008523259448
211,635.03,0.633681120743122,0.3434400902020524,26.330431671351473
212,635.38,0.6298345605568063,0.3238442756341161,25.96041462530998
213,635.73,0.6264702691580385,0.30421986372159576,25.59053247796183
214,636.07,0.6238717017662826,0.28503065650602927,25.23078781685256
215,636.42,0.6214538448910242,0.2652380219548222,24.860332401997443
216,636.78,0.615601859640098,0.2852047332645974,24.479292546717897
217,637.15,0.6095873192433127,0.30572607544408853,24.08766825101392
218,637.51,0.6037353339923864,0.32569278675386365,23.706628395734374
219,637.87,0.5980947405420525,0.3457737000573992,23.325087515215905
220,638.25,0.5921682486659349,0.3669520217352176,22.922491023823227
221,639.07,0.5788040106973718,0.41274966931438406,22.05254378823023
222,639.87,0.6354301211308861,0.4297295566653131,21.2038147778956
223,640.27,0.6637431763476435,0.43821950034077756,20.779450272728287
224,640.63,0.6892249260427249,0.4458604496486956,20.397522218077704
225,640.98,0.7143511099564216,0.45284359347891645,20.025650162046315
226,641.33,0.7393885748603425,0.4600503083248615,19.653671617805443
227,641.69,0.7648931897089921,0.46781066682171807,19.271356251279933
228,642.05,0.7906600148161036,0.47512578348564977,18.888909190878252
229,642.44,0.8186975541207862,0.4828553672148053,18.47447270437042
230,642.82,0.8462623131646458,0.48996860751132026,18.070446753879555
231,643.19,0.8732232811583279,0.49660714075425927,17.67708616682222
232,643.56,0.9003935998483154,0.5026846245317397,17.28383987358613
233,643.93,0.9277256209344364,0.5086633065756476,16.89002799780901
234,644.3,0.9439877873329843,0.5261903323319929,16.496216122031893
235,644.66,0.9598104357207605,0.5432436546895179,16.11304781046497
236,645.02,0.9756330841085369,0.560296977047043,15.729879498898045
237,645.38,0.9914557324963131,0.577350299404568,15.34671118733112
238,645.72,1.0063993448625463,0.5934562149644527,24.98483000418458
239,646.08,1.0220159020403627,0.6105043192231132,24.602251770526788
240,646.44,1.0371681623348035,0.6276902016254895,24.220188037460517
241,646.81,1.0530539663956309,0.645222324693557,23.827372948444697
242,647.17,1.0692230427623681,0.6619380016638361,23.445003007810826
243,647.52,1.0851974304240355,0.6781362657540693,23.072806783809167
244,647.88,1.1021240343630179,0.6945495814109213,22.68980529340309
245,648.23,1.1179329621718572,0.7107755497272921,22.317936643672454
246,648.6,1.1341573861799081,0.7281830200041189,21.924855994516815
247,649.34,1.1658260119709527,0.763370706200181,21.138848901513285
248,649.72,1.1817830346061138,0.6872098817531553,20.735503694745486
249,650.09,1.1966273233028062,0.6692647335191795,20.34319532007248
250,650.45,1.2108927924338475,0.651780645146151,19.961806658417867
251,650.81,1.2251172971190774,0.6343671369017555,19.580905909105407
252,651.16,1.238693561645165,0.6174286938755531,19.211168781267773
253,651.52,1.2529380550472813,0.6002300688658417,18.831388112943582
254,651.88,1.2676571510941546,0.5832669425719645,18.451656894431643
255,652.23,1.282438919513385,0.5669520046038414,18.082163553450233
256,652.61,1.2710474118246304,0.5473140600585054,17.680999354670416
257,652.98,1.2599556806540013,0.5281929035275202,17.290392108490067
258,653.35,1.248863949483372,0.5090717469965351,16.89978486230972
259,653.73,1.2374724417946177,0.489433802451199,16.498620663529902
260,654.11,1.226080934105863,0.4697958579058629,16.097456464750085
261,654.46,1.215588755971484,0.45170827740357977,15.727963123768674
262,654.81,1.2050965778371046,0.43362069690129657,18.691803116120596
263,655.17,1.2212704123797002,0.4173575854617194,18.311752822539717
264,655.53,1.2374442469222957,0.4010944740221422,21.26503586229217
265,655.9,1.2545456023957928,0.38472101270261505,20.874770363067153
266,656.26,1.271319401517169,0.36876762804221264,20.494540254848385
267,656.62,1.2885594058004157,0.3531638819889898,20.114643506579277
268,656.99,1.306280042711875,0.3371973018385423,19.72453633381421
269,657.37,1.324626328407212,0.3209089476064983,19.323971470564377
270,657.76,1.2819811811630974,0.30379351511555075,18.912232351266706
271,658.39,1.2520081615052336,0.2764975996369198,18.248067745516092
272,658.9,1.22845159973287,0.2541272570207292,17.711178890441563
273,659.28,1.2104834700043094,0.23775245499837197,17.311351532824457
274,659.65,1.1936007901693195,0.22141503317442585,16.92191311976866
275,660.24,1.150072453915422,0.2259508381467775,16.300916731382394
276,660.74,1.1131840333612715,0.22979474066571962,15.774648605631318
277,661.15,1.0829355285068683,0.23294674073125213,15.343108742515437
278,661.54,1.0541625604746307,0.23594498469602695,14.932619604429599
279,661.91,1.0268651292645594,0.23878947256004412,14.543181191373803
280,662.26,1.0406181948083766,0.25539980699394677,14.17479350334805
281,662.62,1.054764205082017,0.2724847224116752,13.795880452807276
282,663.01,1.0700890495451274,0.290993380780881,13.385391314721439
283,663.43,1.086592728197708,0.31092578210156413,12.943326089090535
284,663.88,1.1042752410397585,0.33228192637372467,12.469684775914567
285,664.27,1.1196000855028692,0.35079058474293046,12.05919563782873
286,664.64,1.1341390405063327,0.3683500811444847,11.669757224772933
287,664.99,1.14789210605015,0.3849604155783873,21.30136953674718
288,665.34,1.1732033786909102,0.3802778150554664,20.93298184872143
289,665.7,1.199237830549978,0.3754614259461763,20.554068798180655
290,666.05,1.2245491031907383,0.37077882542325546,20.185681110154903
291,666.41,1.2505835550498061,0.3659624363139654,19.80676805961413
292,666.77,1.2766180069088737,0.36114604720467536,19.427855009073355
293,667.12,1.301929279549634,0.3564634466817545,19.059467321047602
294,667.48,1.3279637314087018,0.35164705757246445,28.68055427050683
295,667.84,1.3000856834432168,0.33166643345996405,28.301641219966054
296,668.24,1.3034739221675709,0.30946574000163035,27.880626719365193
