,t,x,y,energy,sight
0,581.786,0.5928692040665693,0.32307734086769485,49.93629862246002,102.39620961925688
1,581.846,0.5896305802172683,0.3229263732461624,49.87459043878234,102.39620961925688
2,581.902,0.5866125546409765,0.3228601936441825,49.817042513574464,102.39620961925688
3,581.96,0.5835025562892244,0.3227637327126329,49.75753575138739,102.39620961925688
4,582.018,0.5803897344026961,0.3227600793880458,49.69802047654026,102.39620961925688
5,582.076,0.5772804818240533,0.32269535575181785,49.638523748036484,102.39620961925688
6,582.136,0.5740708563193473,0.32259330682315335,49.57701328082849,102.39620961925688
7,582.196,0.5708470064526964,0.322459287691961,49.515404337278014,102.39620961925688
8,582.258,0.5675108747269105,0.32239456211291606,49.451725309517435,102.39620961925688
9,582.318,0.5642696750285942,0.3222770907490494,49.39000952795945,102.39620961925688
10,582.374,0.5612461660097964,0.3220962821999388,49.3323965828173,102.39620961925688
11,582.438,0.5577841663630331,0.3219557661913205,49.26653249265904,102.39620961925688
12,582.498,0.5545469619986234,0.3217613291413995,49.20481856324921,102.39620961925688
13,582.56,0.5511916324883865,0.3216620850536259,49.141011296367104,102.39620961925688
14,582.62,0.5479570934454249,0.3216577212844197,49.07935174380531,102.39620961925688
15,582.684,0.5445038464425281,0.32157717416341836,49.01355590231956,102.39620961925688
16,582.746,0.5411520014895292,0.32141520243995914,48.949755296231224,102.39620961925688
17,582.814,0.5374798610090423,0.32131952984741496,48.87982600710291,102.39620961925688
18,582.872,0.5343379686740162,0.3212710874671715,48.82012230518345,102.39620961925688
19,582.932,0.531105253847442,0.321138768613375,48.75845712260194,102.39620961925688
20,582.992,0.5278819108078447,0.32097777597108806,48.69684352839641,102.39620961925688
21,583.056,0.5244553584098938,0.3206999001996046,48.631152552033235,102.39620961925688
22,583.116,0.5212286971580187,0.32043868878718873,48.5694758790581,102.39620961925688
23,583.176,0.5180161921628581,0.3201077518541827,48.507848558204024,102.39620961925688
24,583.236,0.514808750106853,0.31968223765946047,48.446182590880554,102.39620961925688
25,583.298,0.5114794187397071,0.31931314449801496,48.3824205655728,102.39620961925688
26,583.362,0.5080569627284703,0.31892021071062754,48.316683908953735,102.39620961925688
27,583.424,0.5047570790545797,0.31845925779671014,48.253035836098285,102.39620961925688
28,583.484,0.5015682089609077,0.3179329193091949,48.19139245256988,102.39620961925688
29,583.548,0.498177153679032,0.3172748138373521,48.12559572541938,102.39620961925688
30,583.612,0.49480065285591646,0.3165708827904481,48.05983244904746,102.39620961925688
31,583.674,0.4915482573943776,0.31580998695943147,47.99613130405033,102.39620961925688
32,583.738,0.488220827573119,0.3149304395264065,47.93041528720281,102.39620961925688
33,583.8,0.48503471077682087,0.3139913881123114,47.866833154127065,102.39620961925688
34,583.86,0.48193413312589095,0.3131272454271436,47.80527469733359,102.39620961925688
35,583.924,0.47859961900014636,0.31224415034237923,47.73950904165619,102.39620961925688
36,583.986,0.47536209959728587,0.3114083030673581,47.67578574539978,102.39620961925688
37,584.046,0.4722302521865626,0.31065848262985557,47.614216977064984,102.39620961925688
38,584.104,0.46917759266996983,0.30998099626686404,47.55461139671758,102.39620961925688
39,584.164,0.4660180939408581,0.3092853266890229,47.492947762107875,102.39620961925688
40,584.224,0.4628614228334878,0.30860969163839813,47.43132901637743,102.39620961925688
41,584.288,0.4595068253543159,0.3078161400635776,47.36557801642816,102.39620961925688
42,584.35,0.4562469531104544,0.3071278314786796,47.30193107121155,102.39620961925688
43,584.408,0.4532104574544653,0.3064035012186014,47.2423590421259,102.39620961925688
44,584.47,0.4499477183572317,0.3056302110029077,47.17857527843342,102.39620961925688
45,584.536,0.44647623031408934,0.3048622043660773,47.11076621135286,102.39620961925688
46,584.596,0.4433071919985575,0.304228368157756,47.04912418676697,102.39620961925688
47,584.656,0.44012858578369907,0.3036578859152022,46.987497579485144,102.39620961925688
48,584.716,0.4369473642267175,0.3031537089583799,46.92592516854108,102.39620961925688
49,584.776,0.4337653316331145,0.30259322384635795,46.86428817179979,102.39620961925688
50,584.84,0.43036028502604157,0.3020399705272498,46.79852104093237,102.39620961925688
51,584.9,0.427169184296489,0.3014558685962243,46.73680020451436,102.39620961925688
52,584.962,0.42389360685575966,0.3007836535759324,46.67307584784416,102.39620961925688
53,585.022,0.4207179860556519,0.30022263443768804,46.611478668903885,102.39620961925688
54,585.084,0.4174387266438388,0.2996803557606781,46.54788261883292,102.39620961925688
55,585.144,0.41427946253283954,0.29908792326619005,46.486352414389046,102.39620961925688
56,585.206,0.41101445248038926,0.2984403337273017,46.42272552613294,102.39620961925688
57,585.266,0.40786753519157004,0.2977931379974402,46.361205254859954,102.39620961925688
58,585.326,0.4047192482113676,0.2972100523712261,46.29975507459503,102.39620961925688
59,585.39,0.4013537458003419,0.29664549133900286,46.23422585694107,102.39620961925688
60,585.454,0.39801775841056625,0.2960058304747947,46.16879754407975,102.39620961925688
61,585.52,0.3945996535928117,0.2952523771752199,46.10134217651596,102.39620961925688
62,585.588,0.39108076756023347,0.29447642479588254,46.031860651013154,102.39620961925688
63,585.656,0.3875730511585775,0.29368075642322244,45.96242134492439,102.39620961925688
64,585.722,0.384135350249145,0.2929870598683275,45.89492225516428,102.39620961925688
65,585.79,0.38057447504488967,0.2923322854746354,45.8253309615543,102.39620961925688
66,585.858,0.3769945505277762,0.2917678272870874,45.75571677825244,102.39620961925688
67,585.932,0.3731057347342566,0.29102956082145937,45.67986836722986,102.39620961925688
68,586.004,0.3693370332191275,0.29022380499467965,45.60605338574334,102.39620961925688
69,586.072,0.3657546658369446,0.28952023518833997,45.53626862801993,102.39620961925688
70,586.134,0.36247786730405046,0.28888725357651585,45.47258565902292,102.39620961925688
71,586.2,0.3589989796216424,0.2881238437520899,45.40473667393988,102.39620961925688
72,586.266,0.3555355323641479,0.2872540884707035,45.336828031179486,102.39620961925688
73,586.338,0.3517612323366446,0.2862456784523858,45.262675030707065,102.39620961925688
74,586.404,0.3483094004501427,0.2852442794427198,45.19461811254204,102.39620961925688
75,586.472,0.3447331439440186,0.28429653853585424,45.12452038003346,102.39620961925688
76,586.536,0.34139304814644034,0.2833608609081165,45.058631786328974,102.39620961925688
77,586.6,0.3380486730306337,0.2824065823018343,44.99268444909079,102.39620961925688
78,586.662,0.3347762802477059,0.28157736217164264,44.92875543456412,102.39620961925688
79,586.724,0.33149681702167416,0.28074784344369563,44.86478208418433,102.39620961925688
80,586.79,0.32802452631906404,0.2798137104176841,44.79671496158882,102.39620961925688
81,586.856,0.32453640649722854,0.27891262468200384,44.728603804038016,102.39620961925688
82,586.918,0.32124317343419795,0.2781517999542543,44.6646481905095,102.39620961925688
83,586.982,0.3178643394553101,0.27732130173179337,44.59869096084374,102.39620961925688
84,587.048,0.3144061610079819,0.2763934202038757,44.53072144465067,102.39620961925688
85,587.112,0.311037616845952,0.2754934889878662,44.464717617017264,102.39620961925688
86,587.172,0.3078559766343313,0.2747162996747913,44.402797928768564,102.39620961925688
87,587.234,0.3046050795692016,0.27382510939071636,44.338900796051156,102.39620961925688
88,587.294,0.30147368766662275,0.27288985915945163,44.27702663804225,102.39620961925688
89,587.356,0.29824240784375755,0.2718714414339036,44.213019860342726,102.39620961925688
90,587.418,0.29499039107672576,0.27087485790995347,44.14892782066265,102.39620961925688
91,587.478,0.291807573402315,0.26997663532956234,44.08680368225467,102.39620961925688
92,587.544,0.2883145461008423,0.26896042168290646,44.01846713000589,102.39620961925688
93,587.612,0.28471566948720367,0.2679134136833216,43.94805977314351,102.39620961925688
94,587.68,0.28216552249098853,0.2706602098040929,43.87765241628114,102.39620961925688
95,587.744,0.27976538414160956,0.2732454296824659,43.81138666864596,102.39620961925688
96,587.806,0.27744025011564866,0.2757498614396397,43.747191725624376,102.39620961925688
97,587.87,0.27504011176626963,0.27833508131801266,43.6809259779892,102.39620961925688
98,587.932,0.27271497774030873,0.2808395130751865,43.616731034967614,102.39620961925688
99,587.994,0.2703898437143478,0.2833439448323603,43.55253609194603,102.39620961925688
100,588.06,0.2679147010415508,0.2860099528319324,43.48419953969725,102.39620961925688
101,588.124,0.26547185598877926,0.28853588292022975,43.41802123743341,102.39620961925688
102,588.188,0.26295169447830546,0.29100527057974573,43.351750896979894,102.39620961925688
103,588.252,0.26041882676402606,0.29345339098177703,43.28551720608807,102.39620961925688
104,588.316,0.2578286055732574,0.2958326895325355,43.21931843005191,102.39620961925688
105,588.384,0.2550793342547585,0.29838637347726527,43.14888406160948,102.39620961925688
106,588.45,0.252434753395413,0.30087643141600035,43.08058248680941,102.39620961925688
107,588.516,0.24972381303058308,0.30329110103869866,43.01229357440203,102.39620961925688
108,588.576,0.24733096477546326,0.3055490164215696,42.95027928056298,102.39620961925688
109,588.638,0.24489380601463936,0.3079221674886239,42.886184609534894,102.39620961925688
110,588.7,0.24244368301857602,0.3102838129570926,42.822081583636795,102.39620961925688
111,588.766,0.2398869775791689,0.3128480617564636,42.75385243286386,102.39620961925688
112,588.83,0.23736631039091582,0.3153049697198992,42.687635601777615,102.39620961925688
113,588.894,0.23488840224257723,0.3177872278774869,42.62149939343122,102.39620961925688
114,588.956,0.23245677523798713,0.3201467385682897,42.557490956624065,102.39620961925688
115,589.022,0.2298930768346775,0.32270563506622085,42.48925439601793,102.39620961925688
116,589.082,0.2274911628302104,0.3249807884947149,42.42712214883515,102.39620961925688
117,589.142,0.22504587158544279,0.32721640788333833,42.36495904099902,102.39620961925688
118,589.204,0.22252352625338845,0.3295447819257511,42.30066588028623,102.39620961925688
119,589.266,0.2199933315320322,0.3318441828030854,42.2364609172997,102.39620961925688
120,589.33,0.21743296686570815,0.334251255616123,42.17028111069049,102.39620961925688
121,589.394,0.21483778714765198,0.33659849433612543,42.104197101931916,102.39620961925688
122,589.454,0.21239617032396754,0.3387852763562541,42.04226115158621,102.39620961925688
123,589.516,0.20986873705125825,0.34101837536433227,41.97835253680333,102.39620961925688
124,589.578,0.2073765932226975,0.3432872050722449,41.91445937520926,102.39620961925688
125,589.642,0.2047838031478403,0.34561177035357904,41.84848383474389,102.39620961925688
126,589.702,0.2024018278460701,0.3478275405294412,41.78670473951041,102.39620961925688
127,589.77,0.19974359958159635,0.35037700394402327,41.71671266275553,102.39620961925688
128,589.832,0.1972620361248105,0.3526281098689739,41.652945901623134,102.39620961925688
129,589.896,0.1947194183544856,0.35496370886828926,41.58716069317181,102.39620961925688
130,589.958,0.1922325907341486,0.3572031729668329,41.523418897369226,102.39620961925688
131,590.02,0.18976193812583966,0.3594703122632378,41.45963456039135,102.39620961925688
132,590.088,0.18712534500343336,0.3620385888210332,41.38965836513937,102.39620961925688
133,590.152,0.1846236943302918,0.3644556565921241,41.32370644612462,102.39620961925688
134,590.214,0.18225272848347643,0.3668721266920658,41.259716238931084,102.39620961925688
135,590.28,0.17972208101736253,0.3694191747942456,41.19168275983216,102.39620961925688
136,590.34,0.1774151043107808,0.37170795074959856,41.129926110503746,102.39620961925688
137,590.402,0.17508698734477848,0.37411584585152075,41.06616655926848,102.39620961925688
138,590.464,0.17274425329333398,0.3765238981454425,41.00234115591185,102.39620961925688
139,590.528,0.17027907715910867,0.3789574137280091,40.936482695423514,102.39620961925688
140,590.59,0.16783289467290663,0.38123809440446144,40.87275448006738,102.39620961925688
141,590.65,0.16542978004530967,0.3834204343216672,40.81102055971802,102.39620961925688
142,590.712,0.16301881896789117,0.3857433348131342,40.747270074791594,102.39620961925688
143,590.774,0.1605306965842615,0.3880037932452928,40.68343200079121,102.39620961925688
144,590.84,0.1578370341125825,0.3903619319463034,40.61546545792771,102.39620961925688
145,590.902,0.15524889322229313,0.39250646092070224,40.55163018993629,102.39620961925688
146,590.964,0.15262334566304378,0.394588375271964,40.48786129688386,102.39620961925688
147,591.026,0.14999765161461484,0.3966911755795167,40.42400836556606,102.39620961925688
148,591.088,0.14741680481396194,0.39883521417288026,40.36021102835957,102.39620961925688
149,591.15,0.144872520601178,0.4010261084533278,40.2963986959191,102.39620961925688
150,591.21,0.14243529987450126,0.4031650696694566,40.234686836679856,102.39620961925688
151,591.272,0.1399193598183584,0.4053643324302364,40.17097642736249,102.39620961925688
152,591.332,0.13748692248574096,0.4074896400725967,40.10934516685888,102.39620961925688
153,591.394,0.13496183018382502,0.40968164908324906,40.04562108385669,102.39620961925688
154,591.456,0.1324956514611315,0.4119270044315659,39.981951942138735,102.39620961925688
155,591.518,0.13006612441212104,0.4142060888121189,39.91830855903554,102.39620961925688
156,591.584,0.1274269350349012,0.4165980154850688,39.85045851405855,102.39620961925688
157,591.648,0.12486296382539668,0.4189050859102408,39.7846950098415,102.39620961925688
158,591.706,0.1225967133297863,0.4210441770080656,39.725157205024836,102.39620961925688
159,591.772,0.12008316140457946,0.4235548624717884,39.65736576619267,102.39620961925688
160,591.834,0.1176903084244754,0.42589608525922334,39.593616744178505,102.39620961925688
161,591.896,0.11524261266479903,0.4281717844346587,39.52990316521368,102.39620961925688
162,591.96,0.11272942532118443,0.43055116990833203,39.46406458041578,102.39620961925688
163,592.022,0.1102407683352546,0.4328101373278314,39.400230388641624,102.39620961925688
164,592.088,0.10755992255490691,0.4352047757423275,39.33217054690572,102.39620961925688
165,592.15,0.10498158030954825,0.43740654082327524,39.26814745949693,102.39620961925688
166,592.21,0.10246010835498436,0.4394900377705562,39.20625522197216,102.39620961925688
167,592.274,0.0997510412212053,0.44169335132498205,39.14021776534041,102.39620961925688
168,592.336,0.09708818127207483,0.44376826341230896,39.07628882406066,102.39620961925688
169,592.4,0.09436717357392764,0.4459477641813069,39.010287620938335,102.39620961925688
170,592.46,0.09178280378924505,0.44793790666608074,38.94845332762922,102.39620961925688
171,592.524,0.08907601314070562,0.4501340680616545,38.88245604055424,102.39620961925688
172,592.588,0.08642766798537467,0.45238476057846577,38.81652356220854,102.39620961925688
173,592.652,0.08375280121611799,0.45462553265070954,38.750502298340585,102.39620961925688
174,592.712,0.08128831862961318,0.45676114408660984,38.68867303216033,102.39620961925688
175,592.774,0.07871551340618571,0.45894399654410256,38.62475538519338,102.39620961925688
176,592.834,0.0762060481245217,0.46104700236631874,38.56284234988222,102.39620961925688
177,592.9,0.07345884809051915,0.46337888743391986,38.494725987297485,102.39620961925688
178,592.962,0.07093040365650216,0.46562573245277533,38.43075418513591,102.39620961925688
179,593.122,0.06444169206801068,0.4715265004956392,38.265400080117765,102.39620961925688
180,593.18,0.062100823738271395,0.4736950839027772,38.20538454171038,102.39620961925688
181,593.24,0.05965200007178809,0.47593133246831065,38.14320202801319,102.39620961925688
182,593.298,0.05734384173052239,0.47813655109454184,38.08317830260428,102.39620961925688
183,593.358,0.05490976932689482,0.48035292714527233,38.021151244989284,102.39620961925688
184,593.416,0.052540289163138965,0.4824601948696877,37.9612638735095,102.39620961925688
185,593.474,0.05015255842801451,0.4845322432743601,37.90143751741014,102.39620961925688
186,593.538,0.04756184764087868,0.48689206486498504,37.83532056277402,102.39620961925688
187,593.604,0.04485023042394976,0.4892562868151463,37.76724186841668,102.39620961925688
188,593.662,0.04249339816151832,0.4913458793440461,37.707490135099796,102.39620961925688
189,593.874,0.033682563859387754,0.4988126981995019,37.488855233320024,102.39620961925688
190,593.934,0.03115299361070272,0.5008990543486866,37.42691137722663,102.39620961925688
191,593.992,0.02872838760510335,0.5029506420645283,37.36699102007891,102.39620961925688
192,594.052,0.02629034714969647,0.5051427755364942,37.305049230303666,102.39620961925688
193,594.114,0.023803265883288894,0.5074340471472125,37.24108295845349,102.39620961925688
194,594.17,0.02160568698159182,0.509537866521881,37.183384509842114,102.39620961925688
195,594.228,0.01934714286294861,0.5117411161653089,37.12359798468479,102.39620961925688
196,594.288,0.017048251465250262,0.5140785697626341,37.06165707279691,102.39620961925688
197,594.346,0.01481337416767376,0.5163158257277782,37.00182530404014,102.39620961925688
198,594.406,0.0187244608271068,0.5186646366620908,36.939881941626254,102.39620961925688
199,594.468,0.02105215986606828,0.5211275581338819,36.875869666549896,102.39620961925688
200,594.526,0.02326863799969268,0.5233914348023745,36.81599955962243,102.39620961925688
201,594.588,0.025590634725325877,0.5258409482039148,36.75207469344211,102.39620961925688
202,594.65,0.02790619423244552,0.5283075619832068,36.68809848735076,102.39620961925688
203,594.712,0.03020171456292598,0.5307837644717044,36.624164893158486,102.39620961925688
204,594.768,0.03228616706546321,0.5330278928095158,36.56633473060722,102.39620961925688
205,594.826,0.0344354556361243,0.5353412492750651,36.50653225947896,102.39620961925688
206,594.886,0.0367018944272297,0.5376832545529042,36.444715534938794,102.39620961925688
207,594.946,0.03895669107415124,0.5400283444278687,36.38293633088529,102.39620961925688
208,595.012,0.04145765365213645,0.5426114953584872,36.314870921209156,102.39620961925688
209,595.072,0.04370715372862727,0.5449859441354574,36.25297919511787,102.39620961925688
210,595.14,0.04626701562029937,0.5476450394494158,36.1829370068757,102.39620961925688
211,595.202,0.04853905509800664,0.5501434964235943,36.11900013545338,102.39620961925688
212,595.266,0.0508773518687452,0.5527346802865716,36.052973467186426,102.39620961925688
213,595.324,0.052933677389901956,0.5551437113758149,35.993109428786944,102.39620961925688
214,595.384,0.05507084696942151,0.5576455041479081,35.93109264876183,102.39620961925688
215,595.444,0.05723934127263419,0.5601022047105673,35.86916232562199,102.39620961925688
216,595.502,0.05938285845558876,0.5624288402556719,35.80932255602407,102.39620961925688
217,595.564,0.061661840761688534,0.5649206923742855,35.745386976474116,102.39620961925688
218,595.626,0.06390419334645547,0.5674521099569807,35.68142002210453,102.39620961925688
219,595.686,0.06601717730403625,0.5699417235164643,35.619562939331836,102.39620961925688
220,595.746,0.06814400026505713,0.5724324963183931,35.55764279442423,102.39620961925688
221,595.806,0.07031393563842142,0.5749031252114636,35.49563947302287,102.39620961925688
222,595.866,0.07244767936706076,0.57739020871809,35.43370846487456,102.39620961925688
223,595.926,0.07455766056874877,0.579903625772533,35.3717473632623,102.39620961925688
224,595.984,0.076648282144037,0.5822853216071968,35.31187194360623,102.39620961925688
225,596.046,0.07893780612879327,0.5847971249147006,35.247796577707696,102.39620961925688
226,596.104,0.08104828113967207,0.5871734469375258,35.18786284038394,102.39620961925688
227,596.164,0.08320254666547519,0.5896496696329361,35.12589856712098,102.39620961925688
