,t,x,y,energy
0,596.8,0.323827801161736,0.47699676419157433,49.634873599422725
1,597.14,0.2999042436491866,0.46859692851049306,49.27965618676134
2,597.47,0.276552255489726,0.46086332015560155,48.935419950945416
3,597.82,0.2518054241800914,0.452507607205204,48.570010665970145
4,598.15,0.22858222893866037,0.44426760747196975,48.22498892427323
5,598.5,0.20353665904293508,0.4360641598323974,47.85866381746725
6,598.86,0.17804632882788088,0.4273536569535711,47.48234847001258
7,599.22,0.1527756268065604,0.41814256473779776,47.10562244415682
8,599.55,0.12949144247963854,0.40983896898477773,46.760161777704894
9,599.89,0.10532202110437702,0.40147082351273317,46.403959704881295
10,600.23,0.08123855877158552,0.3931195293021201,46.04817742554928
11,600.58,0.05623685012556526,0.38491989145965105,45.68205499995257
12,600.92,0.08217885490194679,0.38083369246660453,45.3263932150872
13,601.29,0.11040986009977376,0.3763869465035833,44.93934950802783
14,601.63,0.1363518648761553,0.37230074751053677,44.58368772316246
15,601.99,0.16381986993350045,0.36797418387084047,44.207104656834424
16,602.33,0.18976187470988198,0.36388798487779395,43.851442871969056
17,602.67,0.2157038794862635,0.3598017858847474,53.49578108710369
18,603.01,0.2416800764564029,0.3556061309788158,53.13981303833609
19,603.36,0.2684039185379075,0.35148844819953057,52.773717541397104
20,603.73,0.29665163053255306,0.347148173527715,52.386733720571115
21,604.08,0.3233077061699231,0.3425351032391043,52.020280523209955
22,604.43,0.3371135513860227,0.3602480782434818,51.653827325848795
23,604.77,0.3505249438816624,0.3774549682477343,51.29784421984081
24,605.12,0.36433078909776195,0.3951679432521118,60.93139102247965
25,605.46,0.3774865685261289,0.4125020862379095,60.575315542437885
26,605.8,0.37788884904375925,0.43244540362370654,60.21924006239612
27,606.14,0.3782911295613896,0.4523887210095035,59.86316458235435
28,606.48,0.3786934100790199,0.47233203839530047,59.507089102312584
29,606.83,0.37910752237658063,0.49286192393950323,69.1405408140343
30,607.18,0.378769585175173,0.5134200380773591,68.77381689881967
31,607.52,0.393498357833745,0.5300592729047386,68.41757080975404
32,607.86,0.40822713049231696,0.5466985077321183,68.0613247206884
33,608.2,0.422955903150889,0.5633377425594979,67.70507863162277
34,608.54,0.437684675809461,0.5799769773868774,67.34883254255713
35,608.88,0.4524134484680331,0.596616212214257,66.9925864534915
36,609.22,0.46714222112660514,0.6132554470416365,76.63634036442586
37,609.55,0.4463849004515132,0.6017051393591195,76.29057210150923
38,609.88,0.4256188669301377,0.5900732303440651,75.94445844827499
39,610.21,0.40504312578496177,0.578312918077587,75.59857903224753
40,610.56,0.3828757603495843,0.5662965000898645,75.23215085374338
41,610.9,0.3608614498721606,0.5550486299322751,74.87586826670353
42,611.25,0.3377037410416673,0.543909830281311,74.50867362669497
43,611.63,0.3126773242019642,0.5316748808438246,74.10998235257017
44,611.98,0.289255604220723,0.5207350353471963,73.74239673664228
45,612.33,0.26591753679891006,0.5096594521991938,73.37468931739261
46,612.68,0.242248551553529,0.49893057735747337,73.0067981570289
47,613.03,0.21846050168569933,0.4882242983756421,72.63849202062619
48,613.38,0.1943911802554866,0.4779992918348007,82.27057121947108
49,613.75,0.16885450725760404,0.4673823397286653,81.88184305339668
50,614.11,0.1436852937258349,0.4576400890984318,81.50402991480883
51,614.47,0.11837592407024727,0.4482151061022693,81.1265337199122
52,614.83,0.09328731467093944,0.4383005797562058,80.74855381844363
53,615.18,0.06874756914799515,0.42873243745239475,80.38065442676552
54,615.52,0.045309074025106935,0.41898020017289167,80.02357281836379
55,615.88,0.020817057458640733,0.40815195139320765,79.64524510079545
56,616.23,0.03941990891719846,0.42350712529697543,79.2774264864929
57,616.61,0.05958194860144291,0.44017845696392327,78.87808056239298
58,616.98,0.07921340829399671,0.45641106937647774,78.48924374155885
59,617.33,0.09778370800316921,0.4717662432802455,78.1214251272563
60,617.68,0.11698595943226184,0.48679953398625014,77.75304496860018
61,618.04,0.1362048346434729,0.5025848779034376,77.37437650189322
62,618.39,0.15518918543977483,0.5177467764660039,77.00611893072363
63,618.74,0.1737748796048944,0.533072058355095,76.63839224707442
64,619.1,0.19331988754100202,0.5486253899455714,76.2597476950167
65,619.45,0.21171529005221626,0.5641429943125629,75.89171654158255
66,619.8,0.23020599972587197,0.5796860926447616,75.52325927966656
67,620.16,0.24878157192919753,0.5960869624466753,75.14367543986246
68,620.51,0.2670849334743037,0.6118424547873842,74.77479330205733
69,620.86,0.2848710475904689,0.6278831019291105,74.40613085618726
70,621.21,0.3032432583258248,0.6434531916196186,74.03792228250116
71,621.59,0.32333614006817785,0.6603337271221571,73.63780312953935
72,621.97,0.34291792509453,0.6776486328271221,73.23719728997843
73,622.34,0.3622261053126508,0.6942690662055148,72.84753641730947
74,622.7,0.3816477785079514,0.7100885601964554,72.46804897757026
75,623.06,0.4102699298576708,0.7113600460015227,72.08856153783105
76,623.42,0.4388920812073902,0.71263153180659,71.70907409809185
77,623.81,0.4698994118362529,0.7140089747620796,71.29796270504103
78,624.19,0.5001116827054012,0.7153510986674284,70.89739262976074
79,624.54,0.5279387742954061,0.7165872654223551,70.52844650779207
80,624.9,0.5565609256451256,0.7178587512274224,70.14895906805286
81,625.25,0.5843880172351306,0.7190949179823489,79.78001294608418
82,625.84,0.630009557622451,0.7275404818509251,79.1580751976227
83,626.44,0.6764043444570144,0.7361291908698162,78.52559613139067
84,626.81,0.7044568845637472,0.7393900850794075,78.13556737388092
85,627.15,0.7265306194241226,0.7411242713921836,77.77716256968277
86,627.5,0.7381894360282973,0.746616221175932,87.4082164477141
87,627.86,0.7667876274481161,0.7236790493718723,87.02872900797489
88,628.21,0.794591424661829,0.7251813957377933,86.65978288600621
89,628.56,0.8223952218755417,0.7266837421037142,86.29083676403754
90,628.92,0.8509934132953606,0.7282290126515185,85.91134932429833
91,629.27,0.8787972105090733,0.7297313590174395,95.54240320232965
92,629.62,0.9067126151233816,0.7308954506987864,95.1730603153767
93,629.97,0.9347406788981973,0.7317180042657662,94.80328066578568
94,630.32,0.9628444243760276,0.7322101444572056,94.43320393577366
95,630.67,0.9908720408206639,0.7332437022787281,94.06336686969428
96,631.02,1.0189014915611267,0.734357359130355,93.69349486330553
97,631.37,1.0469708292477296,0.7350742755754982,93.32354195339435
98,631.73,1.075774221366603,0.7334157898692306,92.94341533452904
99,632.12,1.1070314031341284,0.7338266623772752,92.53134246423532
100,632.49,1.1365993192670578,0.7343947778860762,92.1407912297586
101,632.85,1.1654440173224907,0.7335723210519698,91.76038571596065
102,633.21,1.1942598983102533,0.7329569776660471,91.38015310510764
103,633.56,1.2008297045508363,0.7125225564881721,91.01048251122276
104,633.96,1.208338054540074,0.6891689322848863,90.5880018324972
105,634.33,1.2152832782801186,0.6675668298968469,90.19720720467605
106,634.68,1.2218530845207014,0.6471324087189718,94.82753661079117
107,635.03,1.2290782437375392,0.6268125856243659,94.45780285968046
108,635.38,1.2366618094619948,0.6066054861071112,94.08831017646847
109,635.73,1.2095249645102588,0.6117481323791378,93.71881749325648
110,636.07,1.1831634579857153,0.6167438459005352,93.35988174385055
111,636.42,1.1560266130339796,0.6218864921725619,92.99038906063856
112,636.78,1.1281144296550514,0.6271760711952178,49.61995038298196
113,637.15,1.0991618421077214,0.6321593731249615,49.22878663053266
114,637.51,1.0708343952876584,0.6364614849658137,48.8481948713928
115,637.87,1.0425069484675957,0.640763596806666,48.46760311225294
116,638.25,1.012605754601974,0.6453047148608988,58.065867366494196
117,639.07,0.9477524438983151,0.654718079144126,57.19789128048776
118,639.87,0.88450919476272,0.6640267876307671,56.35106559103171
119,640.27,0.8528413410931186,0.6685967949135654,55.92753789951849
120,640.63,0.8240947441671463,0.6655950693391277,55.54636297715659
121,640.98,0.796146663822451,0.6626767250306467,55.17577624708252
122,641.33,0.7681985834777556,0.6597583807221656,54.80518951700844
123,641.69,0.7394519865517833,0.6567566551477281,54.42401459464654
124,642.05,0.7107053896258111,0.6537549295732905,64.04283967228463
125,642.44,0.6795632429560077,0.6505030602009831,83.62990017305924
126,642.82,0.6492980143435896,0.6475037048295362,83.22806731286097
127,643.19,0.6198960671040408,0.6439313659343516,82.836519386987
128,643.56,0.5904724953627066,0.6403570354088213,82.44486696089665
129,643.93,0.560886550561772,0.6370396173112587,82.05269742788842
130,644.3,0.5313771794303849,0.6332741047860801,81.66043829180849
131,644.66,0.5126303870682567,0.616557522783796,81.27878075400099
132,645.02,0.49388359470612847,0.599840940781512,80.89712321619349
133,645.38,0.4751368023440003,0.583124358779228,80.515465678386
134,645.72,0.45743303291077136,0.567336841858686,80.1550178710617
135,646.08,0.43824719752785135,0.5508050851093943,79.7728889982047
136,646.44,0.41297060072640224,0.5398065252582667,79.39076012534771
137,646.81,0.386991876236024,0.5285024498557189,78.99801656157803
138,647.17,0.36195093547270835,0.5172797513132938,78.61613454949243
139,647.52,0.3376145700232838,0.5063891397469052,78.24496419116032
140,647.88,0.30888161843065126,0.510069341430406,77.8631889654473
141,648.23,0.28094680438225855,0.513647315289365,77.4920186071152
142,648.6,0.25141571524538625,0.5174297447974074,77.09963851402127
143,649.34,0.19235353697164156,0.5249946038134923,76.3148783278334
144,649.72,0.20308018266328234,0.5466230841273461,75.91189336735854
145,650.09,0.21352454820514313,0.5676823939066248,75.51951327426461
146,650.45,0.22368663359722388,0.5881725331513283,75.1377380485516
147,650.81,0.23384871898930465,0.608662672396032,74.75596282283858
148,651.16,0.24372852423160538,0.6285836411061605,74.38479246450648
149,651.52,0.25389060962368615,0.6490737803508642,74.00301723879346
150,651.88,0.26405269501576695,0.6695639195955677,80.62124201308045
151,652.23,0.2736918714430771,0.6896201700032217,80.24965581712456
152,652.61,0.28362833948184984,0.7116145302753704,79.84573412669695
153,652.98,0.2930462701231381,0.7330276166830842,79.4528482184693
154,653.35,0.30184351398399983,0.7546880155668156,79.05935432645063
155,653.73,0.31176617748121643,0.692011666459827,78.65511460626665
156,654.11,0.32264606134723645,0.6701233084401794,78.2503143058611
157,654.46,0.3325672394766967,0.6499564252903482,77.87759912437454
158,654.81,0.3416523889728017,0.6295906310779976,77.50501435698051
159,655.17,0.3503089847367092,0.6085733455862833,77.12237175251568
160,655.53,0.35969520298674185,0.5877414542609856,76.73978059580526
161,655.9,0.3688770954369084,0.5662112738965934,76.3465319898857
162,656.26,0.3781403519393372,0.5453251329682017,75.96379926716804
163,656.62,0.38737369353772017,0.524513572638134,75.58156478206361
164,656.99,0.3962735414950267,0.5029538600944148,75.18854230684146
165,657.37,0.40591973414419086,0.48098902162276014,74.78524133798047
166,657.76,0.4157400313165336,0.458405860787401,74.37120130556417
167,658.39,0.4319712363451908,0.4220343319723366,73.70247591309536
168,658.9,0.44561180335162986,0.39262485264425695,73.16055683349047
169,659.28,0.45643874498455994,0.3709197385762564,72.75694408672642
170,659.65,0.46641470272428887,0.34969306979319914,72.36432256816022
171,660.24,0.48198608596847087,0.31574926311714047,71.73820173480529
172,660.74,0.49419555140323457,0.28661349245875545,71.20682295435755
173,661.15,0.5040985655155352,0.2626583953044567,70.77085834206848
174,661.54,0.5127038962097791,0.23966127190398506,70.35597516126795
175,661.91,0.5201720678567182,0.21765484905517235,69.96206500488702
176,662.26,0.527675163767291,0.1969569513840334,69.58964790920464
177,662.62,0.5107025477089024,0.1789376344816161,69.2065903250742
178,663.01,0.4923155469789816,0.15941670783733067,68.79161127559955
179,663.43,0.47176060206926873,0.13884134355433222,68.34489676724243
180,663.88,0.4501636285350087,0.11650947188425069,67.86601033613914
181,664.27,0.4306221418029404,0.09758281694145181,67.45079283213882
182,664.64,0.41180883833206194,0.07972660941915721,67.05656168855917
183,664.99,0.3943362563912114,0.06274930993455971,66.68416171605132
184,665.34,0.37714027165360414,0.0455342931399007,66.31135438861462
185,665.7,0.3596036077115285,0.02764467363490284,65.92738715264201
186,666.05,0.34280374540018926,0.010111719801262187,65.55406416176969
187,666.41,0.32535942851874405,0.03914893448011446,65.16973305174909
188,666.77,0.308592876493651,0.05756508135807009,64.78515373804782
189,667.12,0.29261083690674833,0.07569984105987523,64.4108877042097
190,667.48,0.27551116544189347,0.09397185646634462,64.02615666043832
191,667.84,0.2589456278018244,0.112553485248815,63.64124000908577
192,668.24,0.2400927543633818,0.13289972809590644,63.2139335476364
193,668.63,0.22131752673367094,0.15244328674479724,62.797754281047546
194,669.03,0.20265125384455998,0.17279278775405107,62.37094007463296
195,669.61,0.17591103402305525,0.2026139795435855,61.75127539190557
196,669.99,0.1578232760279172,0.22191981899663588,61.3449672804857
197,670.34,0.1415807409598254,0.23984720915789928,60.97110759579785
198,670.68,0.12648527947136262,0.25765289061981606,60.60764230965261
199,671.04,0.11078426725297509,0.27659708272330463,60.22302454490406
200,671.38,0.09650230923400364,0.294837238475432,59.85922330029299
201,671.75,0.08155293385920127,0.315020490143047,59.46287899627762
202,672.1,0.06795637134584759,0.3342864340669568,59.088228165452
203,672.44,0.055036965635037544,0.3531045059207112,58.72434095256277
204,672.79,0.042504691311040586,0.3727799684363282,58.34964537151241
205,673.17,0.029009861812699263,0.3940863650753248,57.94338435681088
206,673.55,0.015961251292131683,0.41550049286215174,57.5374030671534
207,673.93,0.03894457650479081,0.4368742756107161,57.131273519053074
208,674.31,0.05175636039519593,0.45835677053621876,56.72536187015134
209,674.74,0.06592483756186743,0.48284621163371055,56.26562164640631
210,675.2,0.08171194309041198,0.5087722453296509,55.774166371770676
211,675.58,0.05664703697211245,0.4945956786600093,55.36818157968037
212,676.24,0.013113252661381695,0.46997322076010545,54.66305009868141
213,676.79,-0.016865423307817907,0.47095382631173266,64.07544053118228
214,677.15,0.08823098209913795,0.4713609331718079,63.691001712185944
215,677.47,0.11452859169147651,0.47209477407021005,63.34969888492531
216,677.8,0.1416860206191766,0.47336482191692875,62.99738475122041
217,678.15,0.1704321382375541,0.4753503165110139,62.62367751336419
218,678.58,0.2057843887443685,0.47801647697048233,62.16424222816626
219,679.04,0.24353329118665998,0.4805301857749026,61.673290954492586
220,679.43,0.27335655183656105,0.48949687459773783,61.257049657247514
221,679.95,0.3131208993697625,0.5014524596948515,60.70206126092075
222,680.62,0.36435573176831043,0.5168567712622868,64.98698005796126
223,681.17,0.40600468296051784,0.5301423236687908,64.400225566246
224,681.51,0.43154745660264265,0.5388358314242006,64.03716277545
225,681.83,0.4559457704480637,0.5465736633916055,63.69502378396556
226,682.15,0.48003898556488933,0.5548765269312668,63.35276542077741
227,682.47,0.5043084419395145,0.5628601277402969,63.010572276387734
228,682.79,0.5287557464080886,0.5703890213517673,62.66873060061464
229,683.12,0.553888522099313,0.5781986815611145,62.31644372868996
230,683.49,0.5821655032370415,0.5867077723508798,61.921618029690386
231,683.86,0.6106163176748638,0.5947531401131488,61.52709088208955
232,684.2,0.6169613461749806,0.6151610935450476,61.16455242213203
233,684.52,0.6229331377045022,0.634368579128011,60.82333975393672
234,684.83,0.6287183107487263,0.652975830786507,60.49278998162251
235,685.15,0.634690102278248,0.6721833163694704,60.1515773134272
236,685.46,0.6404752753224722,0.6907905680279663,59.82102754111298
237,685.77,0.6462604483666964,0.7093978196864622,59.49047776879877
238,686.08,0.6520456214109205,0.7280050713449582,69.15992799648456
239,686.4,0.6572820283215144,0.747288333102279,68.81899464610638
240,686.71,0.6621269684748298,0.7028045816851505,68.48907708963326
241,687.02,0.6662578426910197,0.684100559826656,68.15947166317444
242,687.34,0.6707406078975379,0.6647472228389391,67.81876824290725
243,687.64,0.6756638197032631,0.646664999433323,67.49910360039114
244,687.97,0.6984944623676819,0.635759481652161,67.14747249362341
245,688.31,0.7220169426885982,0.6245234936352062,66.78518589877181
246,688.65,0.7455394230095146,0.6132875056182513,66.42289930392022
247,688.98,0.7683700656739334,0.6023819878370893,66.07126819715249
248,689.3,0.7456816744714897,0.592483823816039,65.73029257846864
249,689.62,0.7229932832690459,0.5825856597949889,65.38931695978478
250,689.94,0.7003048920666022,0.5726874957739386,75.04834134110092
251,690.25,0.7257235906896929,0.5721886628883509,74.71802121050094
252,690.57,0.7519622473328834,0.5716737386193572,74.37704559181708
253,690.88,0.7773809459559742,0.5711749057337696,74.0467254612171
254,691.2,0.8036196025991647,0.5706599814647759,73.70574984253324
255,691.52,0.8298582592423551,0.5701450571957822,73.36477422384938
256,691.84,0.8560969158855456,0.5696301329267885,83.02379860516552
257,692.16,0.8712383826890133,0.5535501179210561,82.68282298648167
258,692.48,0.886379849492481,0.5374701029153236,82.34184736779781
259,692.79,0.9010481454583403,0.5218925883785202,82.01152723719783
260,693.13,0.9171359539370249,0.5048075724349295,81.64924064234623
261,693.46,0.9327505915781009,0.4882250569602678,81.2976095355785
262,693.81,0.9493115708943937,0.47063754054774787,80.92466745264304
263,694.16,0.9658725502106865,0.45305002413522794,90.55172536970757
264,694.49,0.9907689590415105,0.4450831052852526,90.20009426293984
265,694.82,1.0156653678723346,0.4371161864352772,49.648368893232266
266,695.15,1.0407666178620627,0.4294507042075897,49.29657258504125
267,695.49,1.0665060595174718,0.42114230006981046,48.9336428597431
268,695.83,1.0925433456881573,0.4132574318722324,48.570436895369454
269,696.15,1.1171675681185624,0.4059825179543296,48.22841395762713
270,696.48,1.142358210790892,0.39796535391251187,47.87535737777574
271,696.83,1.16893701550993,0.3891485964924377,47.5007154012324
272,697.25,1.2005232035189755,0.3780532534912723,47.05112589548689
273,697.89,1.248854763893423,0.3612682435822885,46.365495996989424
274,698.28,1.2784435466948874,0.3513268743564294,45.94785435844033
275,698.65,1.3068179715211052,0.34247003047152,45.55175368496981
276,698.98,1.332142750514582,0.33481567795940265,45.198989672857074
277,699.3,1.2664735304169836,0.3364766876579227,44.856915479293214
278,699.63,1.2392653201276604,0.33818960390952146,44.50415146718048
279,699.95,1.212881601059226,0.33985061360804153,44.16207727361662
280,700.27,1.1864978819907916,0.34151162330656154,43.82000308005276
281,700.59,1.1601141629223573,0.3431726330050816,43.4779288864889
282,700.91,1.1337304438539229,0.3448336427036016,53.13585469292504
283,701.24,1.129802300955125,0.36509853370687334,52.7830906808123
284,701.56,1.1259931926896243,0.3847493371039853,52.44101648724844
285,701.88,1.1221840844241235,0.4044001405010972,52.09894229368458
286,702.21,1.1182559415253257,0.42466503150436885,51.746178281571844
287,702.53,1.114446833259825,0.44431583490148086,51.40410408800798
288,702.85,1.110637724994324,0.46396663829859286,51.06202989444412
289,703.19,1.1065905474622293,0.4848456169080243,53.19857606378252
290,703.53,1.1017340244719998,0.5056816697579886,52.83477946658673
291,703.86,1.0962427832059654,0.5258175040906778,52.48153691344896
292,704.25,1.0825821355717598,0.5037945108446895,52.064068441558874
293,704.59,1.070672853018863,0.4845949782712638,51.70012156862905
294,704.92,1.0591138434822276,0.4659601378323505,51.34687901549128
295,705.24,1.047905106961854,0.4478899895279498,51.00434078214557
296,705.56,1.0360320335822566,0.43006629677039554,50.66183800707392
297,705.88,1.0109725322098166,0.4366800406903935,50.31933523200227
