,t,x,y,energy,sight
0,623.394,0.6123708169783195,0.2700475736681578,49.939722039959996,85.93168003798087
1,623.448,0.6163414329664229,0.2677833266285297,49.879533239770744,85.93168003798087
2,623.5,0.6202319601287545,0.2656972638224744,49.821490754894974,85.93168003798087
3,623.558,0.6245070298082829,0.2632702915443431,49.75680185573363,85.93168003798087
4,623.614,0.6286376677253048,0.26093736425028224,49.694359646043786,85.93168003798087
5,623.668,0.632673133152272,0.25881245718802665,49.63423560213534,85.93168003798087
6,623.728,0.637107242866663,0.2563613272281357,49.567437364991086,85.93168003798087
7,623.784,0.6412760332693233,0.2541158722512364,49.50505176078923,85.93168003798087
8,623.836,0.6451926031148184,0.25213465407431757,49.44717147362846,85.93168003798087
9,623.89,0.6492617381830729,0.25005949819154927,49.38700261447707,85.93168003798087
10,623.942,0.6532251992942999,0.24815718853521912,49.32907638895092,85.93168003798087
11,623.998,0.6574519004555486,0.24604222717712085,49.26674680510908,85.93168003798087
12,624.05,0.6613268853112036,0.24398385146636642,49.20887550633772,85.93168003798087
13,624.102,0.6651906304317234,0.2418973220520654,49.15098254606112,85.93168003798087
14,624.158,0.6694029421440535,0.2397746867470744,49.088713222128455,85.93168003798087
15,624.21,0.6733600251491588,0.23787824765263194,49.03084004987949,85.93168003798087
16,624.266,0.6776116103520529,0.2358119688517492,48.968505442284645,85.93168003798087
17,624.318,0.6815409675593723,0.2338405366490332,48.91058024528092,85.93168003798087
18,624.37,0.6854280208976531,0.2317707360013857,48.85260641867067,85.93168003798087
19,624.422,0.6893532966300382,0.2297842152736409,48.7946610941578,85.93168003798087
20,624.476,0.6933669310645612,0.2276302444046053,48.73457310844725,85.93168003798087
21,624.528,0.6972466848976374,0.2256075268431669,48.676781081492706,85.93168003798087
22,624.582,0.7012182873502579,0.22342466411866124,48.61684123557573,85.93168003798087
23,624.636,0.7052164491640116,0.2213154467899125,48.556975214505954,85.93168003798087
24,624.688,0.7090439397521509,0.21923221691656006,48.499296298924975,85.93168003798087
25,624.74,0.7128920923586246,0.21719175756464812,48.441630441410055,85.93168003798087
26,624.792,0.7167519817703163,0.2152001814590525,48.384043033733825,85.93168003798087
27,624.846,0.7206957295469697,0.21302723707700072,48.32428997473049,85.93168003798087
28,624.898,0.7244685457646263,0.21089708352161965,48.26677148355808,85.93168003798087
29,624.948,0.7281182063909946,0.2088693986181817,48.2114068975224,85.93168003798087
30,625.002,0.7320316123990481,0.2066548552450314,48.15169358193683,85.93168003798087
31,625.054,0.7358370503868124,0.2045817465673126,48.09416959516727,85.93168003798087
32,625.108,0.7397964869158332,0.20241532939896228,48.03434862787124,85.93168003798087
33,625.162,0.7436900395842614,0.20012408463275114,47.97449998437383,85.93168003798087
34,625.216,0.7476200618977595,0.19786891219445585,47.91456553186151,85.93168003798087
35,625.266,0.7512430893257742,0.19573570607124113,47.8590135418791,85.93168003798087
36,625.322,0.7552642363191062,0.19330815069091672,47.796871009556554,85.93168003798087
37,625.378,0.7592171566555049,0.19077368370287773,47.73473770728852,85.93168003798087
38,625.43,0.7629447711543588,0.18853284700508874,47.677112502548184,85.93168003798087
39,625.484,0.7668316833720741,0.18623661121095522,47.61728424445877,85.93168003798087
40,625.54,0.7708324744467169,0.1838186153517016,47.55528485803133,85.93168003798087
41,625.594,0.7746357124384242,0.18137720254080278,47.49542519453231,85.93168003798087
42,625.648,0.7784637693387513,0.17899044659577276,47.43561832384727,85.93168003798087
43,625.702,0.7823583456904726,0.17672670515866673,47.37585289006411,85.93168003798087
44,625.758,0.7863821321830053,0.1743803050693704,47.31396088186455,85.93168003798087
45,625.812,0.7902275042086676,0.1720489650297806,47.25424537199656,85.93168003798087
46,625.864,0.7938741253572241,0.16970704416406215,47.19671894755851,85.93168003798087
47,625.92,0.7977255103055044,0.1670784753147731,47.134795293026436,85.93168003798087
48,625.972,0.8013363134625958,0.16466541161014858,47.07721108728311,85.93168003798087
49,626.026,0.8051190316602403,0.16220679524016646,47.01740199794421,85.93168003798087
50,626.078,0.8087198048134381,0.15977685349687612,46.95981086070506,85.93168003798087
51,626.132,0.812412773383625,0.15716663656447735,46.899932699092744,85.93168003798087
52,626.184,0.8159142436453065,0.15457593283773943,46.84226663076782,85.93168003798087
53,626.238,0.8194991308955757,0.15183476694427167,46.782449275312324,85.93168003798087
54,626.292,0.8231615311717558,0.1491984333889425,46.722633321523624,85.93168003798087
55,626.346,0.8267544775654008,0.146449310541986,46.662744059087565,85.93168003798087
56,626.398,0.8302893430519468,0.14391293849778228,46.60511002807794,85.93168003798087
57,626.452,0.8339548371392473,0.14125551280982404,46.5451989752904,85.93168003798087
58,626.504,0.8374417283953219,0.13862609755223065,46.48745939320597,85.93168003798087
59,626.56,0.8411157721872666,0.13568953728692162,46.4252764642105,85.93168003798087
60,626.616,0.8447526387139073,0.13269603700876853,46.36304876140219,85.93168003798087
61,626.668,0.8480490007967646,0.12982412536540938,46.30527868160672,85.93168003798087
62,626.72,0.8513835968659975,0.12698786448034227,46.24747200876263,85.93168003798087
63,626.772,0.8547827631087379,0.12420932874611071,46.18958454326976,85.93168003798087
64,626.826,0.8583234045084817,0.1213539648696387,46.12953846257663,85.93168003798087
65,626.878,0.861659507603347,0.11853437568291583,46.07179343544502,85.93168003798087
66,626.93,0.865016736573442,0.11572625228157121,46.013992145616164,85.93168003798087
67,626.984,0.8685508024707085,0.11286176346993584,45.95394207374395,85.93168003798087
68,627.036,0.8718645262680749,0.11000128431690556,45.896135985958594,85.93168003798087
69,627.09,0.8753265657715202,0.10703495614395042,45.836022742951144,85.93168003798087
70,627.15,0.8792548179938968,0.10381778659195931,45.76915385716288,85.93168003798087
71,627.202,0.8825887259887155,0.10096237838221114,45.71127097919941,85.93168003798087
72,627.256,0.8861208835331331,0.09808601109575245,45.65118244988654,85.93168003798087
73,627.306,0.8893272103501306,0.09535621399649791,45.59558830635013,85.93168003798087
74,627.36,0.8927960181031116,0.09242659701799448,45.53559430579839,85.93168003798087
75,627.414,0.8962855499023373,0.08951767992906086,45.475583854675214,85.93168003798087
76,627.466,0.8995694784278069,0.08664735143819205,45.417880392857725,85.93168003798087
77,627.518,0.9028563990760394,0.08379261627150722,45.36022805125548,85.93168003798087
78,627.58,0.9068140278088409,0.08042874494146487,45.29146751861277,85.93168003798087
79,627.634,0.9102232919855051,0.07746882846765055,45.23163684895211,85.93168003798087
80,627.686,0.9135206398035074,0.07464018468187804,45.17404310105295,85.93168003798087
81,627.742,0.9170582889938874,0.07157580673496829,45.11200790707313,85.93168003798087
82,627.794,0.9203447571925519,0.06874221168570586,45.05444628842467,85.93168003798087
83,627.848,0.9237840965713767,0.06583748096720159,44.99469914135782,85.93168003798087
84,627.9,0.9270180121238203,0.06295235339414197,44.93717291497286,85.93168003798087
85,627.958,0.9305795025885445,0.059681866779737136,44.87299996556678,85.93168003798087
86,628.014,0.934040671690765,0.05656358683174726,44.81110321040067,85.93168003798087
87,628.07,0.9375859891048123,0.05355061318792974,44.74924499788184,85.93168003798087
88,628.128,0.9412319994714882,0.05041230238285083,44.68522989972857,85.93168003798087
89,628.184,0.9446553249999816,0.04728994231751969,44.6234950520492,85.93168003798087
90,628.242,0.9481421190402445,0.043993723636932866,44.559559611064806,85.93168003798087
91,628.298,0.9514885816321039,0.040794964529107795,44.49785061723194,85.93168003798087
92,628.354,0.9548842507159605,0.03764853506311852,44.43614182026342,85.93168003798087
93,628.406,0.9580505754281559,0.034742591339906016,44.37884696875781,85.93168003798087
94,628.46,0.9612497239432874,0.03163444367699273,44.319365029085326,85.93168003798087
95,628.512,0.9644245536425198,0.028721760831377764,44.262000911134635,85.93168003798087
96,628.568,0.9678622688520591,0.02561815165723123,44.20027850743764,85.93168003798087
97,628.622,0.971090809076632,0.022515282896471325,44.14068477264829,85.93168003798087
98,628.674,0.9741836298016573,0.019500684108780187,44.08325383113181,85.93168003798087
99,628.73,0.9775519114761689,0.016275529520772332,44.021327154873745,85.93168003798087
100,628.782,0.9806794189154913,0.013274975833157949,43.96379911635225,85.93168003798087
101,628.834,0.9838008801042811,0.020973644506485305,43.90630756138281,85.93168003798087
102,628.886,0.9869543042223128,0.023952869199903852,43.8487535177195,85.93168003798087
103,628.942,0.97841025634137,0.02716090056809754,43.786822915363636,85.93168003798087
104,629.0,0.9748587495764613,0.030454765993702382,43.722595446998795,85.93168003798087
105,629.054,0.9716392215324994,0.033599734383572666,43.6628556428773,85.93168003798087
106,629.108,0.9683580281356698,0.03668772722641155,43.603083333775864,85.93168003798087
107,629.164,0.9649572120063583,0.03989840386129189,43.5410696018892,85.93168003798087
108,629.22,0.961647347510801,0.04321587014530695,43.47899654618508,85.93168003798087
109,629.276,0.958405743708914,0.04660806913518721,43.41688648661277,85.93168003798087
110,629.334,0.9550608960624013,0.05014377695296479,43.35250975350736,85.93168003798087
111,629.392,0.951779770653044,0.05375166814821729,43.288071655424226,85.93168003798087
112,629.448,0.9485317137844431,0.05716162683103269,43.22585084906623,85.93168003798087
113,629.504,0.9453330495645644,0.060602280456048485,43.16370361503867,85.93168003798087
114,629.562,0.9420683754591275,0.06421502875932675,43.09931320187191,85.93168003798087
115,629.616,0.9390910629898406,0.06763923745187835,43.03933731153684,85.93168003798087
116,629.67,0.9360701276508019,0.07102299769059103,42.97937109214006,85.93168003798087
117,629.728,0.9328427373937707,0.07467860596452684,42.914935056552316,85.93168003798087
118,629.782,0.9299173560590452,0.07813471248337753,42.85502063250019,85.93168003798087
119,629.834,0.9270796603537915,0.0814355733730555,42.79737208443471,85.93168003798087
120,629.888,0.9240896466017103,0.08483234287216884,42.73747484081604,85.93168003798087
121,629.94,0.921115436364591,0.08801038620894591,42.67982799356506,85.93168003798087
122,629.992,0.9180733750140193,0.09113660698287965,42.62212128802569,85.93168003798087
123,630.046,0.9148415550446843,0.09430289749062147,42.56222982185343,85.93168003798087
124,630.098,0.9117330823651362,0.09737104570242971,42.504487381779136,85.93168003798087
125,630.152,0.9085202510830521,0.10056483885931633,42.44455877640675,85.93168003798087
126,630.204,0.9055180897632427,0.1037422043501566,42.3867925435256,85.93168003798087
127,630.26,0.9023679143417981,0.10722306241660287,42.32466545976833,85.93168003798087
128,630.314,0.8993398517100936,0.11060480819682073,42.26467844801025,85.93168003798087
129,630.366,0.8963311595225802,0.11377624387765059,42.20691103737035,85.93168003798087
130,630.42,0.8932207293402714,0.11708111995160228,42.14692993797314,85.93168003798087
131,630.472,0.8901452969392555,0.12018282157095565,42.08918551864846,85.93168003798087
132,630.524,0.8871540841930896,0.12334899653730172,42.03151946662062,85.93168003798087
133,630.58,0.8838767949961828,0.12669338025143673,41.969470496975134,85.93168003798087
134,630.63,0.8809948907054898,0.1297236976862089,41.914062513655814,85.93168003798087
135,630.686,0.8776782926580606,0.13304073472221392,41.851960947593525,85.93168003798087
136,630.738,0.8746452600510569,0.13615263529190907,41.7943602150845,85.93168003798087
137,630.796,0.8713176217588054,0.1396636384070395,41.73017401770943,85.93168003798087
138,630.852,0.8680554751433615,0.1430165504363667,41.668153701203295,85.93168003798087
139,630.904,0.8649731177559594,0.14609438714336867,41.610486188504275,85.93168003798087
140,630.96,0.8616000543256431,0.14935577841527575,41.54837666040086,85.93168003798087
141,631.014,0.8582865058264423,0.15245682144905834,41.48839620280967,85.93168003798087
142,631.068,0.8549676293573283,0.15555176115399388,41.428417493072835,85.93168003798087
143,631.128,0.851316855191261,0.15902261159364464,41.361805743092596,85.93168003798087
144,631.182,0.8479409717513876,0.16203645859108487,41.30190734159076,85.93168003798087
145,631.236,0.8445557880264427,0.16505994408982935,41.24192345604941,85.93168003798087
146,631.292,0.8411395756560294,0.16829921490599503,41.17971237445497,85.93168003798087
147,631.346,0.8377998368890749,0.1713612121379146,41.119778766628215,85.93168003798087
148,631.404,0.8342720772521472,0.17470284258303964,41.05545313007877,85.93168003798087
149,631.46,0.8307998654142482,0.17785125586389028,40.9933746286465,85.93168003798087
150,631.516,0.8273688095567543,0.1810484803567327,40.93127863570899,85.93168003798087
151,631.578,0.8235685342360144,0.18459391506110479,40.862497320201655,85.93168003798087
152,631.634,0.8201008713295008,0.18775420855417618,40.8003892168331,85.93168003798087
153,631.692,0.8165052228734815,0.1910153958674262,40.736094911061386,85.93168003798087
154,631.75,0.8129002435614657,0.19425420132180077,40.67185226052142,85.93168003798087
155,631.804,0.809557184076876,0.19729574473772113,40.61199123947433,85.93168003798087
156,631.858,0.8062407217285367,0.20036461779660225,40.55213739067478,85.93168003798087
157,631.916,0.802674499681648,0.20366383348944478,40.48781756188358,85.93168003798087
158,631.97,0.7993994796408226,0.2067886703616645,40.4279117373783,85.93168003798087
159,632.026,0.7959937004424142,0.21002034270523912,40.36578256791268,85.93168003798087
160,632.082,0.792516183989981,0.21317089627270486,40.30366971273339,85.93168003798087
161,632.136,0.789257382135154,0.2162962997337595,40.2438363863369,85.93168003798087
162,632.192,0.785935846032664,0.21957625546245269,40.18187969148975,85.93168003798087
163,632.25,0.7825847131373344,0.2230662783937305,40.11768685834173,85.93168003798087
164,632.306,0.7792643865436784,0.22635811468126854,40.055682186671035,85.93168003798087
165,632.36,0.7760524070081523,0.22950864774170218,39.99595199399014,85.93168003798087
166,632.418,0.7725220963117274,0.23279000276883557,39.93187841587731,85.93168003798087
167,632.47,0.769450853363089,0.23581802660055376,39.87448594328044,85.93168003798087
168,632.53,0.7658862391827478,0.2393019866099106,39.80821297757386,85.93168003798087
169,632.588,0.7624604678203337,0.2426700660049345,39.7442394939547,85.93168003798087
170,632.648,0.7589050915853047,0.24614255777132774,39.678060110181114,85.93168003798087
171,632.708,0.7553878931475306,0.2496720236380082,39.611797827510124,85.93168003798087
172,632.766,0.7520833698159616,0.2531855202701626,39.547701585466235,85.93168003798087
173,632.826,0.7486439630843786,0.256810541035024,39.48134793080698,85.93168003798087
174,632.886,0.7451916993378018,0.2604077174430445,39.41506639459363,85.93168003798087
175,632.94,0.742162362732749,0.2637193129610619,39.35540679076584,85.93168003798087
176,632.994,0.7391756542630454,0.2670825537094518,39.29568431983269,85.93168003798087
177,633.052,0.7359825640469848,0.270706006379167,39.23154783221647,85.93168003798087
178,633.108,0.7329868313564296,0.27429209944501604,49.16956115024022,85.93168003798087
179,633.17,0.7295674455669497,0.27818993115021,49.100858064489266,85.93168003798087
180,633.224,0.7264818708013289,0.2814964869035156,49.0409778981005,85.93168003798087
181,633.282,0.7232714576850243,0.28514785365634576,48.976634058386395,85.93168003798087
182,633.336,0.7201930434449825,0.2884696837061182,48.91671351417228,85.93168003798087
183,633.394,0.7169350952322875,0.29207796615141873,48.85237316474578,85.93168003798087
184,633.454,0.7136355478526348,0.29588132375115356,48.78577565575744,85.93168003798087
185,633.51,0.7106144906736499,0.2994754515046727,48.723645462103214,85.93168003798087
186,633.572,0.707234552102876,0.3034317816032077,48.65482456034821,85.93168003798087
187,633.632,0.7038819024496593,0.3071945190349966,48.58819788669473,85.93168003798087
188,633.69,0.7007478558269731,0.31090974832622753,48.52386329858429,85.93168003798087
189,633.748,0.6977091940975877,0.3146865700741313,48.459612652054,85.93168003798087
190,633.802,0.6948319177657879,0.318174989426377,48.39973693929818,85.93168003798087
191,633.858,0.6917702161788613,0.3217205677954647,48.33767456730041,85.93168003798087
192,633.914,0.687088857602417,0.3215472921264173,48.27561219530264,85.93168003798087
193,634.13,0.6690321888075605,0.3208789431172344,48.03622876045411,85.93168003798087
194,634.184,0.6645180216088463,0.3207118558649387,47.97638290174198,85.93168003798087
195,634.238,0.6600038544101322,0.32054476861264297,47.91653704302985,85.93168003798087
196,634.294,0.655322495833688,0.32037149294359557,47.85447467103208,85.93168003798087
197,634.346,0.650975520012704,0.3202105941080516,47.79684532560558,85.93168003798087
198,634.4,0.6464613528139898,0.32004350685575583,47.73699946689345,85.93168003798087
199,634.452,0.6421143769930058,0.31988260802021184,47.67937012146695,85.93168003798087
200,634.506,0.6376002097942917,0.3197155207679161,47.61952426275482,85.93168003798087
201,634.558,0.6332532339733077,0.31955462193237205,47.561894917328324,85.93168003798087
202,634.618,0.628237492641403,0.3193689694298213,47.495399518759285,85.93168003798087
203,634.674,0.6235561340649588,0.3191956937607739,47.43333714676152,85.93168003798087
204,634.73,0.6188747754885146,0.3190224180917265,47.37127477476375,85.93168003798087
205,634.784,0.6143606082898004,0.31885533083943074,47.31142891605162,85.93168003798087
206,634.838,0.6098464410910862,0.31868824358713504,47.25158305733949,85.93168003798087
207,634.894,0.605165082514642,0.31851496791808764,47.18952068534172,85.93168003798087
208,634.952,0.6003165325604676,0.31833550383228854,47.12524180005832,85.93168003798087
209,635.006,0.5958023653617535,0.31816841657999284,47.06539594134619,85.93168003798087
210,635.06,0.5912881981630392,0.3180013293276971,47.00555008263406,85.93168003798087
211,635.116,0.586606839586595,0.3178280536586497,46.94348771063629,85.93168003798087
212,635.18,0.5812567154992301,0.3176300243225955,46.87255928549598,85.93168003798087
213,635.238,0.5764081655450557,0.3174505602367964,56.80828040021258,85.93168003798087
214,635.294,0.5717296257121879,0.31718157400575714,56.74620713758091,85.93168003798087
215,635.352,0.566885355816769,0.31693777447077354,56.68193765544574,85.93168003798087
216,635.41,0.5620414747706106,0.31681868220656806,56.6177005322292,85.93168003798087
217,635.468,0.5571955824067844,0.31657723850784186,56.55342143335781,85.93168003798087
218,635.526,0.5523526168497762,0.3163220791367283,56.48915654819213,85.93168003798087
219,635.586,0.5473470749019509,0.3162140300734336,56.42274094510844,85.93168003798087
220,635.644,0.5425195035365664,0.31598270892237873,56.35858212317799,85.93168003798087
221,635.696,0.5381834837321716,0.3158786567567466,56.301033958238975,85.93168003798087
222,635.754,0.5333405874716053,0.31585448468790284,56.23681211981671,85.93168003798087
223,635.808,0.5288390714106997,0.31587402964821026,56.17706674065767,85.93168003798087
224,635.862,0.5243250593160493,0.3157693192604409,56.117233886875,85.93168003798087
225,635.918,0.5196337647759266,0.3155595199163978,56.055098432476264,85.93168003798087
226,635.974,0.5149483611032757,0.3154492854326571,55.99302239033985,85.93168003798087
227,636.032,0.5100977452796666,0.3153570038751011,55.92874591528018,85.93168003798087
228,636.088,0.5054212703754244,0.31519362995409256,55.86671705687544,85.93168003798087
229,636.14,0.5010855273250947,0.31491144946501987,55.80911994644154,85.93168003798087
230,636.192,0.4967593357549324,0.3146433236636181,55.751589545572436,85.93168003798087
231,636.248,0.492101989386024,0.31420957870085625,55.68957238253285,85.93168003798087
