,t,x,y,energy,sight
0,631.292,0.5173186535790173,0.5688213215979492,49.94794128480237,83.50074087933925
1,631.346,0.5162199224212902,0.565886697034899,49.89782620017229,83.50074087933925
2,631.404,0.5149635706311814,0.562749031607505,49.84390822773638,83.50074087933925
3,631.46,0.5137721572900456,0.559712995730614,49.79186141287402,83.50074087933925
4,631.516,0.5126292494357735,0.5566676583328165,49.739870266235265,83.50074087933925
5,631.578,0.5114179184258918,0.5532731685536314,49.68229007869884,83.50074087933925
6,631.634,0.5102902398824375,0.5502243588694462,49.63031213751665,83.50074087933925
7,631.692,0.5090373524647678,0.5471014853004056,49.57649028637493,83.50074087933925
8,631.75,0.5078258216084917,0.5439673374132502,49.52269829517019,83.50074087933925
9,631.804,0.5066668421119814,0.541048754676234,49.47254023626231,83.50074087933925
10,631.858,0.5055158245174727,0.5381207679096661,49.42234492669974,83.50074087933925
11,631.916,0.5043169916415134,0.5349721720704118,49.36849571341102,83.50074087933925
12,631.97,0.5032601014266314,0.5320253853018881,49.31839969580171,83.50074087933925
13,632.026,0.5021171628914017,0.5289762291746312,49.266385596952375,83.50074087933925
14,632.082,0.5009441865085884,0.52593298208059,49.21433853986718,83.50074087933925
15,632.136,0.49986307172215455,0.5229702193454202,49.16409363073188,83.50074087933925
16,632.192,0.4986839003662832,0.519920554709128,49.11199397859023,83.50074087933925
17,632.25,0.4974190768731038,0.5167667848219664,49.05796016544575,83.50074087933925
18,632.306,0.4961241819311975,0.5137578623521002,49.005821922292526,83.50074087933925
19,632.36,0.49482037949933855,0.51089557115677,48.955632041224746,83.50074087933925
20,632.418,0.49350317385011644,0.5077768205037569,48.90167786340726,83.50074087933925
21,632.47,0.4924028224097783,0.5049568735469896,48.85335798647721,83.50074087933925
22,632.53,0.4912333877830619,0.5016623592893663,48.79758385256746,83.50074087933925
23,632.588,0.4900035087523065,0.4985029565326851,48.74359870181914,83.50074087933925
24,632.648,0.48871292966410795,0.49525157246765666,48.687810209518176,83.50074087933925
25,632.708,0.487373635444105,0.4920318172073947,48.63209186151818,83.50074087933925
26,632.766,0.4861536319096387,0.48890225035838836,48.57830757866363,83.50074087933925
27,632.826,0.4848214790835105,0.4856971928714355,48.522693634940644,83.50074087933925
28,632.886,0.48348110001039724,0.482509114316675,48.46715964301559,83.50074087933925
29,632.94,0.4822902786143016,0.47964622671641466,48.41725506088797,83.50074087933925
30,632.994,0.4810809107074029,0.47677860376283626,48.36727666965182,83.50074087933925
31,633.052,0.47969640771729455,0.4737433643757445,48.31363871156444,83.50074087933925
32,633.108,0.47826945932994136,0.4708394295222531,48.261757348694324,83.50074087933925
33,633.17,0.4767413635393682,0.46759051364079757,48.20426554219132,83.50074087933925
34,633.224,0.47537106048469935,0.46477384868020905,48.15415852618324,83.50074087933925
35,633.282,0.4739095629149121,0.461729952093501,48.10026147139153,83.50074087933925
36,633.336,0.47253834561735736,0.4589036479595877,48.0500964097236,83.50074087933925
37,633.394,0.4710315988021708,0.45586969537026845,47.996129458445196,83.50074087933925
38,633.454,0.4695527146184051,0.45270513824052755,47.9403735303712,83.50074087933925
39,633.51,0.4681586837081916,0.4497615191019307,47.88835495655114,83.50074087933925
40,633.572,0.4665350060779492,0.4465348664764973,47.830723567096086,83.50074087933925
41,633.632,0.4649154918803718,0.443424929326328,47.774882589683656,83.50074087933925
42,633.69,0.46334674902645867,0.440430945321958,47.72096316851545,83.50074087933925
43,633.748,0.46182985662735376,0.4374099350360459,47.667041313134106,83.50074087933925
44,633.802,0.4603905701956803,0.43460722013060604,47.61681672304765,83.50074087933925
45,633.858,0.45883532775339153,0.4317201163697558,47.564655262621955,83.50074087933925
46,633.914,0.4572876759576278,0.4288132241733834,47.51240509293454,83.50074087933925
47,634.13,0.4512316560227031,0.4176137923849028,47.310679521177335,83.50074087933925
48,634.184,0.4497353637684883,0.4147931810726795,47.26018456590127,83.50074087933925
49,634.238,0.44818784211369306,0.412004785598629,47.20971444672667,83.50074087933925
50,634.294,0.4465987286071611,0.40909586085077143,47.157326864116634,83.50074087933925
51,634.346,0.4451959875939564,0.4063665320317906,47.10874026221535,83.50074087933925
52,634.4,0.44369727160246075,0.40355028672341386,47.05826270424421,83.50074087933925
53,634.452,0.4421996338902175,0.40086622695252394,47.00964465889587,83.50074087933925
54,634.506,0.4406885914954183,0.3980464816349014,46.95911018022208,83.50074087933925
55,634.558,0.4392775950511287,0.3953028154946779,46.91041781510525,83.50074087933925
56,634.618,0.43772284736104056,0.39210677692650814,46.85427103016395,83.50074087933925
57,634.674,0.43627256201335235,0.3891175886477681,46.80183383640301,83.50074087933925
58,634.73,0.4348349890637776,0.3861172617772403,46.749367764737364,83.50074087933925
59,634.784,0.43340175521246777,0.38324766899467333,46.69877883382797,83.50074087933925
60,634.838,0.43200111246845274,0.3803689586448275,46.64822979561514,83.50074087933925
61,634.894,0.43048262802036,0.37742870920242955,46.59587725041061,83.50074087933925
62,634.952,0.4289777161289809,0.3743448673942788,46.54162902566727,83.50074087933925
63,635.006,0.4276445162075804,0.37143472907657193,46.491082432869135,83.50074087933925
64,635.06,0.42625793141710594,0.3685609984431469,46.4406013064078,83.50074087933925
65,635.116,0.4247987456112514,0.3655920097604447,46.38825528440875,83.50074087933925
66,635.18,0.42320436716153936,0.3621480065811039,46.32833931042094,83.50074087933925
67,635.238,0.4218510173384706,0.3589783846728224,46.2739950390433,83.50074087933925
68,635.294,0.4204671603677569,0.35595140054770186,46.22152020131815,83.50074087933925
69,635.352,0.4190552393297155,0.352805970949949,46.16716739915027,83.50074087933925
70,635.41,0.41765781236028393,0.3496705221202566,46.1129107817484,83.50074087933925
71,635.468,0.4162358268550729,0.3465321117698813,46.05857245023906,83.50074087933925
72,635.526,0.4148166699331199,0.3433803588315263,46.00416374832149,83.50074087933925
73,635.586,0.41332333282889977,0.3401362177099304,45.947906841985386,83.50074087933925
74,635.644,0.4119443789013052,0.33697528345331346,45.893548684281505,83.50074087933925
75,635.696,0.4106756717774376,0.3341576000422167,45.844824872696854,83.50074087933925
76,635.754,0.40922627612526224,0.3310356329357657,45.79050906157174,83.50074087933925
77,635.808,0.40779528278056737,0.3281637388212723,45.739913352144,83.50074087933925
78,635.862,0.4062856100115254,0.32532072834158304,45.689251625141154,83.50074087933925
79,635.918,0.4047476584301843,0.3223599038735708,45.63672485222912,83.50074087933925
80,635.974,0.40322651652878694,0.3194064204162118,45.58428923514225,83.50074087933925
81,636.032,0.40169054133506926,0.31632821055852084,45.52998535576712,83.50074087933925
82,636.088,0.4001604316452232,0.3133698820600347,45.4774958608664,83.50074087933925
83,636.14,0.3987255643685184,0.3106436786942664,45.42883212870831,83.50074087933925
84,636.192,0.3973154906998263,0.30790415161150103,45.38016602065475,83.50074087933925
85,636.248,0.39582865890278823,0.3049444757626133,45.32779463884229,83.50074087933925
86,636.304,0.394286892128126,0.30201103787544026,45.27541190532215,83.50074087933925
87,636.356,0.39288956901139926,0.299256611075608,45.226698015452705,83.50074087933925
88,636.41,0.39146863167807844,0.2963927975702466,45.176177267338595,83.50074087933925
89,636.464,0.39000252565189086,0.29353758794198004,45.12557540435007,83.50074087933925
90,636.522,0.3883690314195817,0.2904846866717422,45.07112881781729,83.50074087933925
91,636.578,0.3868295837109271,0.287501438641953,45.01847019907984,83.50074087933925
92,636.632,0.3852932018640015,0.2846390527760464,44.967618577089034,83.50074087933925
93,636.688,0.3872614754491713,0.2819048517426908,44.914883561691155,83.50074087933925
94,636.744,0.389229749034341,0.2791706507093352,44.86214854629328,83.50074087933925
95,636.8,0.39119802261951075,0.27643644967597963,44.8094135308954,83.50074087933925
96,636.856,0.39316629620468047,0.27370224864262405,44.75667851549752,83.50074087933925
97,636.912,0.3951345697898502,0.2709680476092685,44.70394350009964,83.50074087933925
98,636.966,0.3970325478898353,0.26833149661281847,44.65309187810883,83.50074087933925
99,637.022,0.39900082147500504,0.2655972955794629,44.60035686271095,83.50074087933925
100,637.074,0.40082850408980547,0.2630583946199184,44.55138863412721,83.50074087933925
101,637.128,0.40272648218979057,0.26042184362346843,44.5005370121364,83.50074087933925
102,637.186,0.40476505126014495,0.25758999255320736,44.44591860333145,83.50074087933925
103,637.238,0.4065927338749454,0.2550510915936629,44.3969503747477,83.50074087933925
104,637.29,0.4084204164897458,0.25251219063411845,44.34798214616396,83.50074087933925
105,637.344,0.41031839458973096,0.2498756396376684,44.29713052417315,83.50074087933925
106,637.396,0.4121460772045314,0.24733673867812395,44.2481622955894,83.50074087933925
107,637.45,0.4140440553045165,0.24470018768167395,44.197310673598594,83.50074087933925
108,637.502,0.415871737919317,0.2421612867221295,44.14834244501485,83.50074087933925
109,637.56,0.4179103069896713,0.2393294356518684,44.0937240362099,83.50074087933925
110,637.616,0.419878580574841,0.23659523461851287,44.04098902081202,83.50074087933925
111,637.67,0.42177655867482616,0.23395868362206285,43.99013739882121,83.50074087933925
112,637.726,0.4237448322599959,0.23122448258870731,43.93740238342333,83.50074087933925
113,637.778,0.4255725148747963,0.22868558162916286,43.88843415483959,83.50074087933925
114,637.83,0.4273767258212319,0.22614533194871433,43.839546279830735,83.50074087933925
115,637.884,0.4292205690244863,0.22348611085858677,43.78877608919938,83.50074087933925
116,637.934,0.4318790943295574,0.222104220145094,43.74176665342961,83.50074087933925
117,637.988,0.4347503016590342,0.22061177817452182,43.69099646279825,83.50074087933925
118,638.04,0.43751516797630813,0.21917461183248937,43.64210664959769,83.50074087933925
119,638.094,0.44038637530578495,0.21768216986191719,43.59133645896634,83.50074087933925
120,638.152,0.4434702646596674,0.21607917663426557,43.5368055134734,83.50074087933925
121,638.202,0.4461287899647385,0.2146972859207728,43.48979607770363,83.50074087933925
122,638.26,0.4492126793186209,0.2130942926931212,43.435265132210695,83.50074087933925
123,638.314,0.45208388664809773,0.211601850722549,43.38449494157934,83.50074087933925
124,638.368,0.4549550939775745,0.2101094087519768,43.33372475094799,83.50074087933925
125,638.42,0.4577199602948484,0.20867224240994436,43.284834937747426,83.50074087933925
126,638.472,0.4604848266121223,0.2072350760679119,43.235945124546866,83.50074087933925
127,638.528,0.46346237495380194,0.2056873584688,43.183294556484725,83.50074087933925
128,638.584,0.46643992329548156,0.20413964086968814,43.130643988422584,83.50074087933925
129,638.638,0.46931057327788384,0.20264889830850868,43.07988197745284,83.50074087933925
130,638.69,0.47212794279550907,0.20129078873817727,43.03091825961288,83.50074087933925
131,638.742,0.4749427345000945,0.1999169308032251,42.981925397989,83.50074087933925
132,638.796,0.4778777128018546,0.19848750362315365,42.93097193972341,83.50074087933925
133,638.848,0.48068164466575336,0.19705939693418412,42.88188633785562,83.50074087933925
134,638.902,0.4836148471921035,0.19561036830190334,42.83088783654045,83.50074087933925
135,638.956,0.48657063405257334,0.1941845335236958,42.77982456706906,83.50074087933925
136,639.008,0.48943508109948697,0.19282585689527493,42.7305874641833,83.50074087933925
137,639.06,0.4923068940029567,0.19151459946856284,42.68143568351882,83.50074087933925
138,639.116,0.4953650855911462,0.190038537383085,42.628529106787134,83.50074087933925
139,639.17,0.498330551225821,0.18864411781376494,42.577496368797476,83.50074087933925
140,639.226,0.5013608350819398,0.18712079728790293,42.524616353649236,83.50074087933925
141,639.28,0.5042884580734184,0.18567858421770073,42.47366917443879,83.50074087933925
142,639.334,0.5072493972912823,0.18429719375886044,42.422698039478846,83.50074087933925
143,639.388,0.5101736862615083,0.18283417672432495,42.371710766229555,83.50074087933925
144,639.44,0.5129571435217519,0.18134268495277675,42.322553435115985,83.50074087933925
145,639.494,0.5158228592601314,0.17977156227274818,42.271577058584306,83.50074087933925
146,639.552,0.5188892387705449,0.17804955638181075,42.21678248958435,83.50074087933925
147,639.608,0.5218653349144103,0.17639696014236728,42.163822333412774,83.50074087933925
148,639.662,0.5247863473350789,0.17488490030090428,42.11271137943856,83.50074087933925
149,639.72,0.5279086309029769,0.17325150038044884,42.057872575307556,83.50074087933925
150,639.776,0.5309499658810651,0.17173011018011244,42.004934874854925,83.50074087933925
151,639.922,0.5389675050765124,0.16785831964813294,41.866678641643134,83.50074087933925
152,639.974,0.5418184893117112,0.1664532769293522,41.81738992834627,83.50074087933925
153,640.028,0.544795353675543,0.16505545861072898,41.766281913709946,83.50074087933925
154,640.082,0.5477961346566484,0.16367954043020777,41.71509404851924,83.50074087933925
155,640.132,0.5505553528337666,0.16236908718767853,41.66771103714142,83.50074087933925
156,640.18,0.5531591547156869,0.1610407034358506,41.62228309797176,83.50074087933925
157,640.232,0.5559902151181759,0.1596072660845528,41.57302724329065,83.50074087933925
158,640.284,0.5588112918075134,0.1581588141196175,41.52378466264975,83.50074087933925
159,640.336,0.5616721901331876,0.15679772140174203,41.47456143956211,83.50074087933925
160,640.386,0.5643939550359064,0.15542924284142318,41.42723070515681,83.50074087933925
161,640.436,0.5671551963526181,0.15411710652565463,41.37983137617068,83.50074087933925
162,640.488,0.5700453089040672,0.15282114188643775,41.33061324204201,83.50074087933925
163,640.54,0.572926216592776,0.15150029215869992,41.28138298974837,83.50074087933925
164,640.592,0.5757957725447868,0.15018358472185256,41.232229826106355,83.50074087933925
165,640.642,0.5785133660845931,0.14883610865314195,41.18498302294116,83.50074087933925
166,640.692,0.58119583221639,0.14743986759753475,41.13779527373197,83.50074087933925
167,640.744,0.5839759322412322,0.1459799367543777,41.08875158161515,83.50074087933925
168,640.792,0.5865324285509408,0.14463127201389733,41.04353260982795,83.50074087933925
169,640.842,0.5891924576735812,0.14321798216391746,40.996421168067805,83.50074087933925
170,640.892,0.591883072188655,0.14185795696176853,40.94929280835676,83.50074087933925
171,640.942,0.5945447018252666,0.14042345652837723,40.90210828664213,83.50074087933925
172,640.992,0.597201705071984,0.13899056187866876,40.854954704475155,83.50074087933925
173,641.042,0.5998520244490546,0.13754015435421368,40.80778520549958,83.50074087933925
174,641.092,0.6025273590962719,0.13614908274568308,40.760653215332766,83.50074087933925
175,641.142,0.605253343661286,0.13483552757546852,40.713453506783644,83.50074087933925
176,641.192,0.6079622066498367,0.133482991676228,40.66624230325272,83.50074087933925
177,641.25,0.6110559294147091,0.13184927361563606,40.61156435283851,83.50074087933925
178,641.302,0.6138170906161321,0.13034721528769885,40.562500456429795,83.50074087933925
179,641.352,0.6164411171495858,0.12885911201884853,40.51536053957573,83.50074087933925
180,641.402,0.6191043872288893,0.127442808940686,40.4682217309227,83.50074087933925
181,641.452,0.6217672972493131,0.1260181593758601,40.42105981562912,83.50074087933925
182,641.502,0.624421023650716,0.12456550876613452,40.373864296807014,83.50074087933925
183,641.556,0.6272706056528153,0.12296529203722957,40.32288786348742,83.50074087933925
184,641.612,0.6302382657469736,0.1213123590093946,40.26997384446854,83.50074087933925
185,641.662,0.632915876998718,0.1199152534862911,40.222811092440715,83.50074087933925
186,641.716,0.6358173738699089,0.1184189645009063,40.17185743310637,83.50074087933925
187,641.768,0.6385991776580401,0.116961953968759,40.12281276495731,83.50074087933925
188,641.828,0.6417665853689118,0.11518222694130534,40.06616020205221,83.50074087933925
189,641.886,0.6448822179298629,0.11354765292144442,40.01135561631477,83.50074087933925
190,641.938,0.6476858827302866,0.11209486049822204,39.9621993389861,83.50074087933925
191,641.99,0.6504724003164002,0.11061281073872489,39.91305318837795,83.50074087933925
192,642.042,0.6533088728698815,0.10919818984513378,39.86382045671973,83.50074087933925
193,642.094,0.6561710105158907,0.10782399816560895,49.81455392661533,83.50074087933925
194,642.148,0.6591584862758184,0.10639853788251785,49.763308839675545,83.50074087933925
195,642.198,0.6618886553157223,0.10502199578714747,49.71590685657196,83.50074087933925
196,642.25,0.6646939116642899,0.10353589668064431,49.66664262554355,83.50074087933925
197,642.302,0.6675431045421389,0.1021117872535499,49.617309931098475,83.50074087933925
198,642.356,0.670528854034612,0.10070699150962747,49.56613145731722,83.50074087933925
199,642.406,0.6732568071794092,0.09934963118460449,49.518797133302854,83.50074087933925
200,642.458,0.676052603735781,0.0978799042542939,49.46963535046185,83.50074087933925
201,642.508,0.6787752977112207,0.09652794703883258,49.42234655882016,83.50074087933925
202,642.558,0.6814820515355102,0.09515430564203312,49.37508667808753,83.50074087933925
203,642.608,0.6841515163593,0.09373032848287069,49.3278897887004,83.50074087933925
204,642.658,0.6867722539399018,0.09223849702365278,49.28075638622495,83.50074087933925
205,642.71,0.689517663211231,0.09073780143654436,49.23178517353347,83.50074087933925
206,642.76,0.6921847009875345,0.08937184305822878,49.18477407809525,83.50074087933925
207,642.812,0.6949769985809525,0.08797358530032841,49.13584105960182,83.50074087933925
208,642.864,0.6977778441097107,0.08658388509456862,49.08688351252453,83.50074087933925
209,642.912,0.7003886166940025,0.08536947160728955,49.04173512739566,83.50074087933925
210,642.962,0.7031439996386399,0.08416962267782768,48.99466768616083,83.50074087933925
211,643.012,0.7059043264032085,0.08300554869919138,48.94766135499078,83.50074087933925
212,643.064,0.7088014335036126,0.08187630545021687,48.89881421847868,83.50074087933925
213,643.114,0.7116152942610977,0.08086860073693594,48.85185193734173,83.50074087933925
214,643.164,0.7144519689703982,0.0798897824614861,48.80481322853596,83.50074087933925
215,643.216,0.717384976632268,0.07882341183844446,48.755892890124024,83.50074087933925
216,643.27,0.7204661933697312,0.07779219928774776,48.70503774806787,83.50074087933925
217,643.322,0.7234368015165675,0.07676768477669944,48.655980009391804,83.50074087933925
218,643.372,0.7263261698678036,0.07586008467070776,48.60876363268575,83.50074087933925
219,643.422,0.7292207868995407,0.07493586727518968,48.561483122344,83.50074087933925
220,643.472,0.7321149846122252,0.07403063685626973,48.51424178870155,83.50074087933925
221,643.522,0.7350195138953292,0.07319058366025283,48.467057355980664,83.50074087933925
222,643.578,0.7382721584195087,0.07223409821541368,48.41418542329118,83.50074087933925
223,643.632,0.7413916469280117,0.07124104056020085,48.36317322206658,83.50074087933925
224,643.686,0.7445377695327471,0.07032310709606286,48.31213824120985,83.50074087933925
225,643.742,0.7478180698704898,0.06938009625575939,48.25912042737779,83.50074087933925
226,643.796,0.7509580019364376,0.06838670438245634,48.20798286974257,83.50074087933925
227,643.85,0.7540753250086605,0.06736755612890422,48.156932587217995,83.50074087933925
228,643.902,0.7570578898842548,0.06629285543095054,48.10769587216848,83.50074087933925
229,643.956,0.7601974614818565,0.06526573976655384,48.05649440261175,83.50074087933925
230,644.01,0.7633121033522057,0.06414061007531233,48.00523968694089,83.50074087933925
231,644.06,0.7662092056936751,0.06316436112418711,47.95784024420595,83.50074087933925
