,t,x,y,energy,sight
0,660.266,0.1597801879874531,0.5094943966646486,49.94323857782818,98.36428585717628
1,660.316,0.15870144694464405,0.5066000151384548,49.89068170544687,98.36428585717628
2,660.368,0.15757955626012263,0.5035898583512132,49.83602255817031,98.36428585717628
3,660.418,0.15650081521731357,0.5006954768250192,49.783465685789004,98.36428585717628
4,660.47,0.15537892453279217,0.49768532003777766,49.728806538512444,98.36428585717628
5,660.522,0.15425703384827075,0.49467516325053607,49.674147391235884,98.36428585717628
6,660.574,0.15313514316374932,0.4916650064632945,49.619488243959324,98.36428585717628
7,660.624,0.15205640212094026,0.4887706249371006,49.566931371578015,98.36428585717628
8,660.678,0.15089136179470647,0.48564469288881124,49.5101699494062,98.36428585717628
9,660.728,0.14981262075189744,0.48275031136261737,49.45761307702489,98.36428585717628
10,660.778,0.14873387970908836,0.47985592983642344,49.40505620464358,98.36428585717628
11,660.828,0.14765513866627927,0.4769615483102296,49.35249933226227,98.36428585717628
12,660.88,0.14653324798175787,0.473951391522988,49.29784018498571,98.36428585717628
13,660.928,0.14549765658066116,0.4711727852578419,49.24738558749965,98.36428585717628
14,660.98,0.14437576589613973,0.4681626284706003,49.19272644022309,98.36428585717628
15,661.03,0.14329702485333068,0.46526824694440644,49.14016956784178,98.36428585717628
16,661.08,0.14221828381052165,0.46237386541821257,49.08761269546047,98.36428585717628
17,661.128,0.14118269240942494,0.4595952591530665,49.03715809797441,98.36428585717628
18,661.18,0.14011164955049063,0.45656128164181087,48.98246663194625,98.36428585717628
19,661.23,0.13914888451231397,0.4536325283028903,48.92994772730834,98.36428585717628
20,661.28,0.1381782044936693,0.45069703125695587,48.87737197192061,98.36428585717628
21,661.338,0.13700066536546446,0.44730417133457473,48.816352872274024,98.36428585717628
22,661.39,0.1359090292720952,0.4442674229032323,48.76160047162561,98.36428585717628
23,661.44,0.13494792173092246,0.441313380016611,48.70893102888891,98.36428585717628
24,661.488,0.1339696983281622,0.4385078878138778,48.65843912412181,98.36428585717628
25,661.542,0.1328993180809815,0.4353366618369077,48.60160720122345,98.36428585717628
26,661.598,0.13185680910176756,0.43201259441136247,48.542588777774746,98.36428585717628
27,661.654,0.13079352253351914,0.4286875021987148,48.48352395346331,98.36428585717628
28,661.704,0.12993343866373902,0.42570081469641297,48.43084426435964,98.36428585717628
29,661.758,0.12901398961190258,0.42247681531302383,48.37397683287264,98.36428585717628
30,661.81,0.1281544215528808,0.4193747022060926,48.319275611810866,98.36428585717628
31,661.924,0.126251592435796,0.41258803660332477,48.199409155234974,98.36428585717628
32,661.972,0.12540858171869207,0.4097514619796533,48.148993749151586,98.36428585717628
33,662.02,0.1245702611727199,0.4069025604608688,48.09851120207974,98.36428585717628
34,662.068,0.12367249887784941,0.4040790282126319,48.048072572731044,98.36428585717628
35,662.114,0.12274844270483884,0.401390315228761,47.999711865480016,98.36428585717628
36,662.162,0.12178923817692819,0.3985911658382769,47.94929809453812,98.36428585717628
37,662.212,0.12080629257895648,0.3956689377842445,47.89677806247903,98.36428585717628
38,662.264,0.1197380366955521,0.39263272200536203,47.84207901471632,98.36428585717628
39,662.312,0.11869893661224788,0.3898442575529985,47.791557455138204,98.36428585717628
40,662.358,0.11761895728569216,0.38720043201713344,47.74311464299352,98.36428585717628
41,662.406,0.11655549123332767,0.3844234532097951,47.69260673625013,98.36428585717628
42,662.456,0.11547802263147051,0.3815245880743378,47.64002581171193,98.36428585717628
43,662.502,0.11443443955632326,0.3788857514395454,47.591699503073094,98.36428585717628
44,662.552,0.11331691933403627,0.37599907888004264,47.539100611305734,98.36428585717628
45,662.6,0.1150342841256854,0.37842419340522093,47.488605675209065,98.36428585717628
46,662.648,0.11675164891733451,0.3808493079303993,47.438110739112396,98.36428585717628
47,662.696,0.11846901370898363,0.3832744224555776,47.38761580301573,98.36428585717628
48,662.742,0.12011482163431404,0.3855984905422068,47.339224822589756,98.36428585717628
49,662.792,0.12190374329228186,0.38812465150593417,47.286625930822396,98.36428585717628
50,662.84,0.12362110808393098,0.39054976603111247,47.23613099472573,98.36428585717628
51,662.886,0.12526691600926138,0.3928738341177417,47.187740014299756,98.36428585717628
52,662.934,0.1269842808009105,0.39529894864292003,52.13724507820309,98.36428585717628
53,662.982,0.12865326482858108,0.397759657250702,52.08673929885676,98.36428585717628
54,663.03,0.13029271669570636,0.4002461633764424,52.03620134495487,98.36428585717628
55,663.08,0.13206400407578459,0.40279004036976496,51.98357452027501,98.36428585717628
56,663.126,0.13368403423659456,0.40513139305842855,51.93518752490299,98.36428585717628
57,663.174,0.1353055692291325,0.4076230636591238,51.88468475541739,98.36428585717628
58,663.222,0.13699612586542012,0.4100740061976607,51.83415261940847,98.36428585717628
59,663.27,0.13865838631361396,0.4125429472007668,51.78362727875416,98.36428585717628
60,663.316,0.14026041542334583,0.41489240976262254,51.73526272899223,98.36428585717628
61,663.368,0.14201420861279984,0.41759811111958445,51.68052709377407,98.36428585717628
62,663.418,0.14363788293152782,0.4202519567796551,51.6278276788508,98.36428585717628
63,663.468,0.1452503678456013,0.4229141635234071,51.57511979320387,98.36428585717628
64,663.516,0.14683032591971543,0.425453830573921,51.52450071983116,98.36428585717628
65,663.568,0.1485538406945612,0.4281950448582843,51.469677787151205,98.36428585717628
66,663.618,0.15021435288595025,0.4308373721848679,51.41691677509793,98.36428585717628
67,663.666,0.1517344854548456,0.4334104250090182,51.36631351279057,98.36428585717628
68,663.716,0.153258886231869,0.4361115626553058,51.31367515712499,98.36428585717628
69,663.766,0.1548243499238677,0.4387838504382179,51.26106585932151,98.36428585717628
70,663.814,0.1563405354100764,0.4413311706900972,51.210617136985825,98.36428585717628
71,663.87,0.1580848959993246,0.44432602792713666,51.15171317105659,98.36428585717628
72,663.928,0.15998316508559043,0.44738644327782195,51.090630477523,98.36428585717628
73,663.982,0.1617447265410369,0.450250188358791,51.033701496543,98.36428585717628
74,664.036,0.16342781629413042,0.45316568147880154,50.97674516332216,98.36428585717628
75,664.088,0.164975447256892,0.45599907209547874,50.92198309294818,98.36428585717628
76,664.138,0.16638514540581512,0.45877471548085824,50.86927110270625,98.36428585717628
77,664.19,0.1677931531304191,0.46169130420911797,50.81444400332243,98.36428585717628
78,664.238,0.16910186547776418,0.46437684328189455,50.76384776189871,98.36428585717628
79,664.29,0.17045471552382613,0.4673178993456976,50.70902951895345,98.36428585717628
80,664.338,0.17174803205367556,0.4700124061093961,50.6584245108778,98.36428585717628
81,664.386,0.17312272550710084,0.47266385919169374,50.607833478708585,98.36428585717628
82,664.434,0.1744991052910503,0.47532072161597005,50.55720674337783,98.36428585717628
83,664.48,0.17577780845192115,0.4778743314866257,50.508764114618316,98.36428585717628
84,664.528,0.1770879576123153,0.48054286481115394,50.458261600445866,98.36428585717628
85,664.578,0.17836809013694715,0.4833570743107587,50.40568672297242,98.36428585717628
86,664.626,0.17955484334942134,0.4860695139966971,50.35526170635784,98.36428585717628
87,664.678,0.1807486582147742,0.4890435917356061,50.300651777359825,98.36428585717628
88,664.724,0.18353780204753473,0.48853598212948085,50.252342994015436,98.36428585717628
89,664.772,0.1864482130034587,0.4880063025404806,50.20193382878651,98.36428585717628
90,664.82,0.1893586239593827,0.48747662295148037,50.15152466355758,98.36428585717628
91,664.87,0.19239030203847018,0.4869248733796051,50.099015116444114,98.36428585717628
92,664.92,0.19542198011755768,0.4863731238077299,50.04650556933065,98.36428585717628
93,664.966,0.19821112395031817,0.4858655142016047,49.99819678598626,98.36428585717628
94,665.014,0.20112153490624216,0.48533583461260443,49.94778762075733,98.36428585717628
95,665.062,0.20403194586216614,0.4848061550236042,49.897378455528404,98.36428585717628
96,665.108,0.2068210896949266,0.48429854541747897,49.849069672184015,98.36428585717628
97,665.16,0.2099740348971776,0.4837247258627288,49.794459743186,98.36428585717628
98,665.208,0.21288444585310157,0.48319504627372856,49.744050577957076,98.36428585717628
99,665.256,0.21579485680902555,0.48266536668472837,49.69364141272815,98.36428585717628
100,665.306,0.21882653488811304,0.4821136171128531,49.64113186561468,98.36428585717628
101,665.356,0.22185821296720057,0.48156186754097796,49.588622318501216,98.36428585717628
102,665.41,0.22513242529261507,0.4809659780033527,49.531912007618665,98.36428585717628
103,665.458,0.22804283624853902,0.48043629841435254,49.48150284238974,98.36428585717628
104,665.506,0.230953247204463,0.4799066188253523,49.43109367716081,98.36428585717628
105,665.562,0.234348726653041,0.4792886593048521,49.37228298439372,98.36428585717628
106,665.61,0.23725913760896494,0.47875897971585185,49.32187381916479,98.36428585717628
107,665.662,0.24041208281121595,0.4781851601611017,49.26726389016678,98.36428585717628
108,665.708,0.24320122664397642,0.47767755055497646,49.21895510682239,98.36428585717628
109,665.756,0.2461116375999004,0.4771478709659762,49.168545941593464,98.36428585717628
110,665.806,0.2491433156789879,0.47659612139410107,49.11603639448,98.36428585717628
111,665.854,0.2520537266349119,0.4760664418051008,49.06562722925107,98.36428585717628
112,665.904,0.2550854047139994,0.4755146922332257,49.013117682137604,98.36428585717628
113,665.952,0.25799581566992336,0.47498501264422543,48.96270851690868,98.36428585717628
114,666.0,0.26090622662584734,0.4744553330552252,48.91229935167975,98.36428585717628
115,666.05,0.26393192880018773,0.47383872967718793,48.859748751355866,98.36428585717628
116,666.098,0.2668293318337979,0.47317314512270137,48.80924582145999,98.36428585717628
117,666.146,0.2697358869105315,0.4725427469573288,48.758734801842124,98.36428585717628
118,666.192,0.272517183263418,0.47187868915403347,48.71026913108523,98.36428585717628
119,666.244,0.2756721096819524,0.4711807096552005,48.655489750139104,98.36428585717628
120,666.294,0.2786940183838256,0.47049850768703577,48.60287473609196,98.36428585717628
121,666.34,0.28148502607400927,0.4699119817553104,48.55445707626148,98.36428585717628
122,666.392,0.28461441545553934,0.46915223009547785,48.49974756856927,98.36428585717628
123,666.438,0.2873795992286042,0.4684485985895558,48.451321381050164,98.36428585717628
124,666.488,0.2904007849633311,0.4677767804095406,48.39872541199609,98.36428585717628
125,666.538,0.2934151753998999,0.4670523649560828,48.346095946483324,98.36428585717628
126,666.586,0.2962949409680385,0.4663440335350006,48.29563953525771,98.36428585717628
127,666.632,0.29904268710027226,0.46564175134023433,48.24732362149275,98.36428585717628
128,666.68,0.30189332719402573,0.46487374745131566,48.19695243447695,98.36428585717628
129,666.728,0.30476728834386885,0.46418791414833455,48.14656603435136,98.36428585717628
130,666.776,0.3076662132431583,0.4635790223191522,48.0961315060385,98.36428585717628
131,666.824,0.31057202082222723,0.46302110971636257,48.0457180881755,98.36428585717628
132,666.872,0.3134723310858027,0.46246810219270973,47.99534512577285,98.36428585717628
133,666.92,0.31634869927346126,0.4618376664357268,47.94502281649784,98.36428585717628
134,666.968,0.319225344532527,0.461261159629882,47.89476963532238,98.36428585717628
135,667.02,0.3223309894801515,0.4606450950500719,47.8404065952961,98.36428585717628
136,667.066,0.3250756652962274,0.4600872432328056,47.792316469512315,98.36428585717628
137,667.114,0.32795159223458187,0.4595615779650755,47.74212903013518,98.36428585717628
138,667.162,0.3308237245144826,0.4589651175838284,47.69187861874326,98.36428585717628
139,667.21,0.33369762636435124,0.4584246139930033,47.641686608810026,98.36428585717628
140,667.258,0.33658860544469504,0.45795253861166063,47.59146271755539,98.36428585717628
141,667.306,0.33949103252349305,0.457564681391736,47.541245490213285,98.36428585717628
142,667.354,0.3423850121514445,0.4570905298553165,47.49100050242553,98.36428585717628
143,667.408,0.3456110340010293,0.4564618399255046,47.43455441028107,98.36428585717628
144,667.458,0.34861277159197407,0.45590458405424117,47.38222695392591,98.36428585717628
145,667.506,0.3514648362793815,0.4552830026936049,47.33206869982728,98.36428585717628
146,667.564,0.35492496163332055,0.45461896616332104,47.27148559901973,98.36428585717628
147,667.618,0.35813728334019906,0.45394656572718556,47.215070037252936,98.36428585717628
148,667.668,0.361108333440305,0.453284628776178,47.16280101138796,98.36428585717628
149,667.722,0.36429715363311854,0.45253106612185157,47.10641931270458,98.36428585717628
150,667.774,0.36735533339329296,0.45170847365705874,47.05205166880768,98.36428585717628
151,667.824,0.37029750256345345,0.45088077803406607,46.99970276166002,98.36428585717628
152,667.878,0.3734871448266501,0.450026674789276,46.94315871590984,98.36428585717628
153,667.932,0.3766642864160946,0.4491598454542981,46.88667065036253,98.36428585717628
154,667.986,0.3798471487605513,0.4482796352717065,46.83012459619001,98.36428585717628
155,668.04,0.38301885003627223,0.4473356936599256,46.77353466020644,98.36428585717628
156,668.092,0.38605775760120753,0.4464046086212557,46.71909363149996,98.36428585717628
157,668.146,0.3892307274827566,0.4455027044748128,46.662571053762264,98.36428585717628
158,668.198,0.39230618133588313,0.44467724692993416,46.60809188444576,98.36428585717628
159,668.252,0.3955051403176885,0.4438401548142389,46.55151805809666,98.36428585717628
160,668.304,0.3957569044859474,0.44066592344397265,46.49703955864938,98.36428585717628
161,668.354,0.39599898541696554,0.4376137778956397,46.44465638610391,98.36428585717628
162,668.404,0.39624106634798373,0.43456163234730677,46.39227321355844,98.36428585717628
163,668.456,0.3964928305162426,0.43138740097704054,46.337794714111155,98.36428585717628
164,668.506,0.39673491144726075,0.42833525542870754,46.285411541565686,98.36428585717628
165,668.558,0.397078897477942,0.4251782749842725,46.23098766271637,98.36428585717628
166,668.608,0.39739032967193666,0.4221518266587639,46.17872801629992,98.36428585717628
167,668.658,0.3977495762371951,0.41911849261952944,46.12639090809595,98.36428585717628
168,668.708,0.3981274704692866,0.41609984367624986,46.07413266480334,98.36428585717628
169,668.758,0.39842885414390067,0.4130717124833888,46.02186877890888,98.36428585717628
170,668.808,0.3988225202756298,0.4100574131155465,45.96962534289512,98.36428585717628
171,668.858,0.3992148231208802,0.4070329234592731,45.91731836060816,98.36428585717628
172,668.908,0.3996712753264139,0.40401512315918203,45.864996665058705,98.36428585717628
173,668.958,0.400058568125469,0.40099112968475586,45.81269693117499,98.36428585717628
174,669.01,0.40041231185371984,0.39785024932385105,45.758368589523606,98.36428585717628
175,669.062,0.4008426809286873,0.39470847324107056,45.70397383023684,98.36428585717628
176,669.114,0.4012672289732023,0.39157252801599773,45.6496210741573,98.36428585717628
177,669.164,0.4016773221500881,0.3885689051979212,45.59743144833224,98.36428585717628
178,669.214,0.4021755081053069,0.3855823087250385,45.545265036831196,98.36428585717628
179,669.262,0.4027316004184291,0.38274008758420125,45.49525335412841,98.36428585717628
180,669.312,0.4033026992212082,0.37977155619464165,45.44311826689849,98.36428585717628
181,669.36,0.4038082345045771,0.3769221025200692,45.39312040927203,98.36428585717628
182,669.418,0.40452182007736903,0.3735043317112383,45.33274081173914,98.36428585717628
183,669.468,0.4051773616447945,0.3705630059759506,45.28066636999635,98.36428585717628
184,669.518,0.405857850595097,0.3676379008865612,45.228657693746094,98.36428585717628
185,669.572,0.40668577210176027,0.3645151298973889,45.17257033809326,98.36428585717628
186,669.626,0.4075239986439484,0.3613839899314153,45.116414247759444,98.36428585717628
187,669.678,0.408372729855264,0.3583831433199822,45.062355835857396,98.36428585717628
188,669.732,0.4092351364879181,0.35527577590267423,45.00630583161842,98.36428585717628
189,669.784,0.41003824630750296,0.3522809198211525,44.952361930834805,98.36428585717628
190,669.832,0.41085451046838867,0.3495439000538617,44.90260603121949,98.36428585717628
191,669.886,0.41184392206165504,0.3464931580649104,44.84666897778625,98.36428585717628
192,669.936,0.4128363797198781,0.3437010401715463,44.79491603501617,98.36428585717628
193,669.988,0.41384113376925935,0.34077577953414984,44.741021183333,98.36428585717628
194,670.038,0.4147382640126245,0.3379334895613891,44.68915780783237,98.36428585717628
195,670.09,0.41561326628856515,0.33497093124074157,44.63528811243288,98.36428585717628
196,670.14,0.4164175374029141,0.3321151310027769,44.5835119095499,98.36428585717628
197,670.19,0.4173004551306055,0.32927710990230674,44.531701804633094,98.36428585717628
198,670.24,0.4182377055222866,0.3264545286156617,44.479879326669256,98.36428585717628
199,670.294,0.4193381234118972,0.32344089767843726,44.42393536092449,98.36428585717628
200,670.344,0.42042503008986876,0.3206674866801367,44.37208302593746,98.36428585717628
201,670.396,0.4215184804479108,0.31777176134077423,44.318173510787304,98.36428585717628
202,670.448,0.4225261260266563,0.314833067328655,44.26419133386692,98.36428585717628
203,670.498,0.42344933195907375,0.3119971197058738,44.21231566575748,98.36428585717628
204,670.548,0.4242868261752764,0.3091433716362172,44.16049332638609,98.36428585717628
205,670.598,0.42519653358138976,0.3063246799276437,44.10874935318873,98.36428585717628
206,670.652,0.42612455657687515,0.303266513420954,44.05288461824325,98.36428585717628
207,670.7,0.42689336204193856,0.3005321279150586,44.0032294261827,98.36428585717628
208,670.75,0.42769460823037664,0.2976889734354923,43.9515363734545,98.36428585717628
209,670.8,0.42848416121443866,0.29484698417181093,43.8998706681348,98.36428585717628
210,670.85,0.42925668817048884,0.2920026686286543,43.8482194711972,98.36428585717628
211,670.9,0.43010122913574406,0.28916752458215034,43.79649852383327,98.36428585717628
212,670.952,0.4310424967922587,0.2862357118134701,43.74269198496292,98.36428585717628
213,671.002,0.43198592488142545,0.28343683922772456,43.69100085904809,98.36428585717628
214,671.052,0.4329876505947845,0.2806683128503825,43.63937001520298,98.36428585717628
215,671.102,0.4339359448815527,0.27788651258389785,43.58777237024526,98.36428585717628
216,671.154,0.4349765402953113,0.27501079124872924,43.5341002452268,98.36428585717628
217,671.204,0.4359076043722864,0.2722241829985689,43.4825087083031,98.36428585717628
218,671.256,0.43681825321969486,0.2693141756952413,43.428894415751756,98.36428585717628
219,671.306,0.43765968253725057,0.2665059957034992,43.377344517526694,98.36428585717628
220,671.356,0.4385692459468361,0.26371378046915034,43.32576201666138,98.36428585717628
221,671.41,0.43956893267747726,0.2607186752795742,43.270142648354415,98.36428585717628
222,671.462,0.4405669346895965,0.2578508195272454,43.21660914221062,98.36428585717628
223,671.514,0.44162137855734124,0.25499394582988333,43.163019889875734,98.36428585717628
224,671.568,0.4427907208543325,0.25205397019918546,43.10735922573683,98.36428585717628
225,671.622,0.44403677035638384,0.24914654777750583,43.05170369361282,98.36428585717628
226,671.67,0.44508545825005086,0.2465436209721629,43.00226719604252,98.36428585717628
227,671.724,0.4462718873073232,0.24362769218262598,42.94670849673191,98.36428585717628
228,671.776,0.44735390297159777,0.24079402863161517,42.89319628709511,98.36428585717628
229,671.828,0.4484449050314853,0.23796030944840235,42.83966315477807,98.36428585717628
230,671.88,0.4495731052467855,0.23513980659088193,42.78612178079576,98.36428585717628
