,t,x,y,energy,sight
0,686.514,0.18663111969302587,0.15410123333432676,49.94104641920844,85.47794447054247
1,686.564,0.1886589797658266,0.15762689325665474,49.88652339323837,85.47794447054247
2,686.614,0.19067939392316383,0.1611554447682056,49.83200803567907,85.47794447054247
3,686.668,0.19275206871681502,0.16501791691745665,49.7731818679279,85.47794447054247
4,686.72,0.19468824126205822,0.16877842625818337,49.716479560540286,85.47794447054247
5,686.77,0.19653753399589985,0.17238623127223465,49.66204034574345,85.47794447054247
6,686.822,0.19836610596128246,0.17619688701651404,49.605357278414864,85.47794447054247
7,686.872,0.20010968022781017,0.1798648488545638,49.55087243823447,85.47794447054247
8,686.922,0.2019359159716485,0.1834931045922492,49.49638335822194,85.47794447054247
9,686.974,0.20384594906045686,0.18726084593091036,49.4397159456968,85.47794447054247
10,687.024,0.20560482360231447,0.19090862333415287,49.385305336425,85.47794447054247
11,687.072,0.20719714730178448,0.1944685410508468,49.33299361767998,85.47794447054247
12,687.124,0.20885900954144235,0.198356328524438,49.276301538687356,85.47794447054247
13,687.172,0.21043725403020813,0.2019343571417577,49.223920468344964,85.47794447054247
14,687.222,0.21218856056688332,0.20561619662616765,49.16933416657491,85.47794447054247
15,687.272,0.21402332371032737,0.20925605903513023,49.11475419348944,85.47794447054247
16,687.322,0.21589197212936942,0.21288884152741877,49.06011618973472,85.47794447054247
17,687.372,0.217848122710787,0.2164700649835475,49.00550739560121,85.47794447054247
18,687.424,0.21993565873961543,0.2201718266787956,48.948676286670306,85.47794447054247
19,687.474,0.22199606481785744,0.22371497881575508,48.89395206892302,85.47794447054247
20,687.532,0.22432418370212165,0.2278750871196637,48.83039021983177,85.47794447054247
21,687.588,0.226672822785638,0.2318291751095325,48.76904477292122,85.47794447054247
22,687.646,0.22914861425162703,0.23588288996310114,48.70559353853584,85.47794447054247
23,687.698,0.2313922060395158,0.239505615007997,48.64868949287168,85.47794447054247
24,687.76,0.2341040025832696,0.24378693144512975,48.580924111971704,85.47794447054247
25,687.812,0.23641363557426748,0.24735393706106054,48.524095196323564,85.47794447054247
26,687.866,0.23879204350074107,0.2510607237163165,48.46513617353346,85.47794447054247
27,687.918,0.24099639376277318,0.25468098605514927,48.40837698365461,85.47794447054247
28,687.968,0.24311227180569261,0.2581495830103723,48.353881028597435,85.47794447054247
29,688.022,0.24534578374621496,0.2619224331932073,48.29504880075622,85.47794447054247
30,688.07,0.24736592611058525,0.2652431487862774,48.24281958687918,85.47794447054247
31,688.122,0.24954308993434418,0.26884078388122357,48.18627447516249,85.47794447054247
32,688.172,0.2516810071838698,0.2722682117732446,48.131928716576354,85.47794447054247
33,688.224,0.2538838304850813,0.2758602356690846,48.07532883553758,85.47794447054247
34,688.278,0.2561951827218757,0.27957059212815427,48.01657984755025,85.47794447054247
35,688.33,0.25832035621051,0.28320476438027076,47.960003896081176,85.47794447054247
36,688.38,0.2604193123353981,0.28666130254171734,47.905630172657055,85.47794447054247
37,688.43,0.2625873405377458,0.2900746668995488,47.85125792930546,85.47794447054247
38,688.48,0.2646816891604206,0.2935484986007319,47.796804777216956,85.47794447054247
39,688.53,0.26674952395555296,0.2970251873584247,47.74242311610958,85.47794447054247
40,688.58,0.2687943262333953,0.30052044705775693,47.68801397892929,85.47794447054247
41,688.632,0.2708177012610856,0.30419886784379696,47.63151318849017,85.47794447054247
42,688.684,0.2728525221095298,0.3078690787249757,47.57502298158987,85.47794447054247
43,688.734,0.2747123662274361,0.31145478804745896,47.52067850684845,85.47794447054247
44,688.784,0.2766364794505062,0.3149924058460791,47.46641288197758,85.47794447054247
45,688.834,0.2785296065936306,0.3185351613140711,47.412212423484974,85.47794447054247
46,688.886,0.2804949793929351,0.3222351836828835,47.35576654720992,85.47794447054247
47,688.936,0.2822862863460386,0.32585545198071275,47.30142302974152,85.47794447054247
48,688.988,0.28422675893964555,0.32957180000452835,47.24495896549512,85.47794447054247
49,689.038,0.28614308279026895,0.3331213415024413,47.19064999773026,85.47794447054247
50,689.088,0.2879825506157511,0.3367204136030987,47.13628918461993,85.47794447054247
51,689.138,0.28990052057506194,0.3402637948197185,47.08200988950604,85.47794447054247
52,689.186,0.2917914605158999,0.3436280048559438,47.0299579525264,85.47794447054247
53,689.236,0.29374077379466723,0.34715816651814546,46.97565666368707,85.47794447054247
54,689.286,0.29560308238087746,0.3507426920439938,46.921311646267725,85.47794447054247
55,689.336,0.2975032340418398,0.3543110133540637,46.86694566268932,85.47794447054247
56,689.39,0.29943364921278576,0.35821515366455203,46.808299553215015,85.47794447054247
57,689.44,0.30114418142718036,0.3618648298843257,46.754010810522104,85.47794447054247
58,689.496,0.30305744424100634,0.36595153301115096,46.69321971062558,85.47794447054247
59,689.552,0.30490722172860407,0.37006309536905285,46.632453509537456,85.47794447054247
60,689.606,0.3066800137046216,0.37402435789522376,46.5739063400924,85.47794447054247
61,689.656,0.30836287708828475,0.37768366694689715,46.51963624937084,85.47794447054247
62,689.706,0.3100657430694398,0.38134426569581426,46.46530492523525,85.47794447054247
63,689.76,0.31182894414552065,0.3853359324803226,46.40660488891871,85.47794447054247
64,689.812,0.3135747096822079,0.389166270433931,46.35003227008894,85.47794447054247
65,689.864,0.3153983716107347,0.3929482957545788,46.29352794893519,85.47794447054247
66,689.914,0.31707651777403395,0.3966064484539661,46.239277184500445,85.47794447054247
67,689.966,0.3188269127542317,0.40041377106511805,46.182826166643494,85.47794447054247
68,690.018,0.3206893646866764,0.4041725577047071,46.12634643868248,85.47794447054247
69,690.07,0.3224552437917603,0.4079821736331729,46.06984055963738,85.47794447054247
70,690.122,0.3242476347556595,0.4117713843706431,46.01338099386049,85.47794447054247
71,690.172,0.3259840071690795,0.4154056569940394,45.95911062128966,85.47794447054247
72,690.222,0.3277132116647257,0.4190558141201806,45.90476815586547,85.47794447054247
73,690.278,0.3297248002736243,0.42309323686493155,45.8439873021999,85.47794447054247
74,690.328,0.33162095708836764,0.42663787994840946,45.78976704787266,85.47794447054247
75,690.378,0.33346552653369355,0.4302238571407318,45.73546591358029,85.47794447054247
76,690.43,0.3354965470010817,0.43390652206972796,45.67891772424649,85.47794447054247
77,690.484,0.3376740833707407,0.437691804621463,45.620197348134,85.47794447054247
78,690.534,0.33961060916220465,0.44124433560506454,45.56580991043548,85.47794447054247
79,690.586,0.34173561105981026,0.44488927378897375,45.509175010985196,85.47794447054247
80,690.636,0.3438094397910183,0.44837514145003954,45.45472325044613,85.47794447054247
81,690.688,0.34606197575243813,0.45192950422638506,45.3981595830527,85.47794447054247
82,690.74,0.34821965786034437,0.455546103646408,45.341574653844866,85.47794447054247
83,690.79,0.350325154093023,0.459014750900438,45.28711296316849,85.47794447054247
84,690.84,0.35247247821397887,0.46245616544828855,45.23265939129164,85.47794447054247
85,690.89,0.354536158992487,0.46594918183083706,45.17820139668408,85.47794447054247
86,690.94,0.3566488394176862,0.4694122536018452,45.12374628677781,85.47794447054247
87,690.994,0.35894793104500816,0.4731513601198607,45.06488213420084,85.47794447054247
88,691.044,0.3611851421423719,0.4765509654780746,45.0103434280637,85.47794447054247
89,691.094,0.3633309666851755,0.48000137292983397,44.95584607914649,85.47794447054247
90,691.144,0.36552170107958093,0.48343749259256574,44.9012729515646,85.47794447054247
91,691.194,0.3678041136582562,0.4868193481574007,44.84666833929742,85.47794447054247
92,691.244,0.37003525207879034,0.4902385660686325,44.79204594832462,85.47794447054247
93,691.296,0.3722786454137825,0.49384841484240666,44.73521259900323,85.47794447054247
94,691.348,0.3744385146035408,0.49749898607178816,44.67843360156011,85.47794447054247
95,691.4,0.3765080622095125,0.5012117530298749,44.621597358227746,85.47794447054247
96,691.452,0.3786281416529814,0.5048857004498258,44.56481766576535,85.47794447054247
97,691.682,0.3875911662016176,0.521314519800835,44.31397707624758,85.47794447054247
98,691.728,0.3894173024560139,0.5245855742989816,44.263787684407376,85.47794447054247
99,691.778,0.39137393796481745,0.5281653358297831,44.209185612744925,85.47794447054247
100,691.828,0.3932991581015829,0.5317646259451095,44.154569232392916,85.47794447054247
101,691.874,0.3950798871512927,0.5350745600944784,44.10430130851039,85.47794447054247
102,691.926,0.3971768915779132,0.5387661419008112,44.04749705078452,85.47794447054247
103,691.974,0.399193415252029,0.5421379607281739,43.994999739282704,85.47794447054247
104,692.022,0.4012512168175075,0.5454985116429286,43.942427345728085,85.47794447054247
105,692.072,0.4033244410201148,0.5490422186068911,43.88765872796851,85.47794447054247
106,692.12,0.40527747060099617,0.5524696256654453,43.83505906845639,85.47794447054247
107,692.17,0.4072265307626973,0.5560958158271051,43.7802188627073,85.47794447054247
108,692.22,0.4092490419369911,0.5596783084795299,43.7253967630741,85.47794447054247
109,692.272,0.411450940420693,0.5633409105041862,43.668413853036036,85.47794447054247
110,692.324,0.4137202953686095,0.5669702878360969,43.61138654457241,85.47794447054247
111,692.376,0.41602706374428217,0.5705683478025306,43.55440048577368,85.47794447054247
112,692.428,0.41832137497278604,0.5741744204649395,43.49741412135405,85.47794447054247
113,692.48,0.42067318459257297,0.5777307294552779,43.44049468436826,85.47794447054247
114,692.53,0.4229300530778879,0.5811551322430727,43.38575424044218,85.47794447054247
115,692.582,0.4251667816426082,0.5847760241052891,43.32888327842745,85.47794447054247
116,692.632,0.4273853639131861,0.5882239457416112,43.2741504188361,85.47794447054247
117,692.684,0.42960903170880715,0.591853716328145,43.21727485542105,85.47794447054247
118,692.736,0.4317794667976904,0.5955104949364823,43.16042720717908,85.47794447054247
119,692.79,0.433944040081866,0.5993629590541005,43.10137405677004,85.47794447054247
120,692.844,0.436067328282083,0.6032254691171406,43.04239306707467,85.47794447054247
121,692.894,0.43805351356895084,0.6067955570207495,42.987753885178556,85.47794447054247
122,692.958,0.44070493703549457,0.6113029457236471,42.91781515086165,85.47794447054247
123,693.02,0.4433507685693037,0.6156283187022263,42.850033505349664,85.47794447054247
124,693.078,0.4459239578686211,0.6195957362069003,42.786717608337156,85.47794447054247
125,693.136,0.44845138063544443,0.6236062273147944,42.723327230441406,85.47794447054247
126,693.194,0.45099904422947246,0.6275896715554465,42.66001355784384,85.47794447054247
127,693.252,0.45360082586019707,0.6315370091035136,42.59670508073333,85.47794447054247
128,693.308,0.45622272604436576,0.6352687521319442,42.53560463685259,85.47794447054247
129,693.36,0.45858981355398704,0.6387866732515736,42.478835322573524,85.47794447054247
130,693.41,0.4608002161698085,0.6422049007641466,42.42429053986383,85.47794447054247
131,693.458,0.4629202635527652,0.6454933508138798,42.37189690375563,85.47794447054247
132,693.506,0.4650816610287146,0.6487489715885757,42.31953420133914,85.47794447054247
133,693.574,0.46826470020016975,0.653261766945382,42.24544074797897,85.47794447054247
134,693.624,0.4706746749424215,0.6565297636509712,42.190960804877506,85.47794447054247
135,693.672,0.47305935408350425,0.6596121447288297,42.13866611119262,85.47794447054247
136,693.724,0.47573124306874465,0.6628772638326894,42.08203213245014,85.47794447054247
137,693.772,0.47827467190915973,0.6658154087518535,42.02980818923268,85.47794447054247
138,693.822,0.4809742637959518,0.6688472039824116,41.9753347107862,85.47794447054247
139,693.868,0.4833820202879876,0.6717026949765994,41.925216707571295,85.47794447054247
140,693.918,0.4860263815675398,0.6747683821546608,41.87081308067775,85.47794447054247
141,693.968,0.48871502905740405,0.67778660901698,41.81645103502781,85.47794447054247
142,694.018,0.4914851050940576,0.6807255629312731,41.76211096543531,85.47794447054247
143,694.068,0.49427145719261034,0.6836352211020851,41.70783507812075,85.47794447054247
144,694.116,0.49701197455272317,0.6863769739876155,41.65567221227138,85.47794447054247
145,694.166,0.49990756125355373,0.6892004263194854,41.6012960892765,85.47794447054247
146,694.218,0.5028243216908397,0.6922137463220635,41.54482369717573,85.47794447054247
147,694.27,0.505809359743479,0.6951600908988766,41.48834839831674,85.47794447054247
148,694.318,0.5085000383462652,0.6979575652797285,41.436154208937815,85.47794447054247
149,694.368,0.5113298373217876,0.7008335370605694,41.381839344494765,85.47794447054247
150,694.416,0.5139618869066425,0.7036677903271439,41.329731820599754,85.47794447054247
151,694.464,0.5165206933056532,0.7065733497548505,41.277600242285516,85.47794447054247
152,694.512,0.5191071546855268,0.7094676383200996,41.22540516705558,85.47794447054247
153,694.56,0.5217278146832013,0.7123291121789797,41.17321899477838,85.47794447054247
154,694.606,0.5242027053483177,0.715107396755383,41.12319298562625,85.47794447054247
155,694.656,0.5267967918418306,0.7182080277955751,41.06882723612826,85.47794447054247
156,694.704,0.5293015897799227,0.7211823084689536,41.01658795480787,85.47794447054247
157,694.754,0.5318702212310098,0.7243208160065083,40.9621393043201,85.47794447054247
158,694.8,0.5341728656647735,0.7272519586035257,40.91207048690622,85.47794447054247
159,694.85,0.5367161538777078,0.7304118149043632,40.857617962833935,85.47794447054247
160,694.898,0.5392038416021881,0.7333979449676467,40.80539086013058,85.47794447054247
161,694.948,0.541765632060814,0.7365294107877461,40.75100481443596,85.47794447054247
162,694.996,0.5441421441873373,0.7395972775572401,40.69881557039006,85.47794447054247
163,695.048,0.5466694635307656,0.742950316145264,40.6423106757523,85.47794447054247
164,695.094,0.5488472270620615,0.745944880973173,40.59240008580085,85.47794447054247
165,695.146,0.5513492406778923,0.7492866370798055,40.53605019908145,85.47794447054247
166,695.192,0.5535088761727851,0.7522819729724366,40.486203657394775,85.47794447054247
167,695.242,0.5555018543937238,0.7557660363701739,40.4320226338223,85.47794447054247
168,695.29,0.557415113485825,0.7591107372320017,40.38000885119273,85.47794447054247
169,695.34,0.5594080917067636,0.7625948006297391,40.32582782762025,85.47794447054247
170,695.39,0.5614010699277024,0.7660788640274763,40.271646804047776,85.47794447054247
171,695.44,0.5633940481486411,0.7695629274252136,40.2174657804753,85.47794447054247
172,695.486,0.5652275881119049,0.7727682657511319,40.167619238788625,85.47794447054247
173,695.542,0.5674597237193562,0.7766704167565976,40.106936492387455,85.47794447054247
174,695.594,0.5695324210691325,0.7802938426902444,40.05058822787208,85.47794447054247
175,695.646,0.5716051184189088,0.7839172686238911,39.99423996335671,85.47794447054247
176,695.696,0.5735980966398475,0.7874013320216284,39.94005893978424,85.47794447054247
177,695.748,0.5756707939896238,0.7910247579552753,39.883710675268865,85.47794447054247
178,695.796,0.577584053081725,0.7943694588171031,39.83169689263929,85.47794447054247
179,695.844,0.5794973121738262,0.7977141596789309,39.77968311000972,85.47794447054247
180,695.892,0.5814105712659273,0.8010588605407587,39.72766932738015,85.47794447054247
181,695.942,0.5834035494868661,0.804542923938496,39.67348830380767,85.47794447054247
182,695.99,0.5853168085789673,0.8078876248003238,39.6214745211781,85.47794447054247
183,696.038,0.5872300676710686,0.8112323256621516,39.56946073854853,85.47794447054247
184,696.086,0.5891433267631698,0.8145770265239796,39.517446955918956,85.47794447054247
185,696.134,0.591056585855271,0.8179217273858074,39.465433173289384,85.47794447054247
186,696.182,0.5929698449473723,0.8212664282476352,39.41341939065981,85.47794447054247
187,696.232,0.594962823168311,0.8247504916453725,39.359238367087336,85.47794447054247
188,696.282,0.5969558013892498,0.8282345550431097,39.30505734351486,85.47794447054247
189,696.33,0.5988690604813509,0.8315792559049375,39.25304356088529,85.47794447054247
190,696.38,0.6008620387022897,0.8350633193026749,39.19886253731281,85.47794447054247
191,696.43,0.6028550169232284,0.8385473827004122,39.14468151374034,85.47794447054247
192,696.478,0.6047682760153297,0.84189208356224,39.092667731110765,85.47794447054247
193,696.528,0.6067612542362684,0.8453761469599772,49.03848670753829,85.47794447054247
194,696.576,0.6086680210488051,0.8487382494454743,48.98639671566344,85.47794447054247
195,696.624,0.6106595289110568,0.8520530164062732,48.934294895175064,85.47794447054247
196,696.672,0.612729756424973,0.855326513629031,48.88215351608258,85.47794447054247
197,696.722,0.6149163732681806,0.8587264411668937,48.82778966409346,85.47794447054247
198,696.772,0.6170999832437434,0.8621333859202249,48.7733984173031,85.47794447054247
199,696.82,0.6192166194716717,0.8653783938443368,48.72124993454016,85.47794447054247
200,696.868,0.6212329933750115,0.8686729981755743,48.66917593588273,85.47794447054247
201,696.916,0.6232094574341149,0.8719809372960021,48.61716108430594,85.47794447054247
202,696.962,0.6250704534942338,0.8751593648120615,48.5673755890534,85.47794447054247
203,697.014,0.6270831472784096,0.8788033237222199,48.51110095447091,85.47794447054247
204,697.062,0.6289287334781316,0.8821697203234693,48.45917766747642,85.47794447054247
205,697.11,0.6307715325347307,0.8855326605780667,48.40728235198534,85.47794447054247
206,697.158,0.6326540521122939,0.8888799546393764,48.35535119527721,85.47794447054247
207,697.206,0.6345263432073118,0.8922292987100005,48.30344061019602,85.47794447054247
208,697.254,0.6363020146000551,0.8956426396530504,48.25146312816026,85.47794447054247
209,697.302,0.6381550245661239,0.8990122594170444,48.19949889186605,85.47794447054247
210,697.352,0.6400922242333584,0.9025062517489628,48.145437683041514,85.47794447054247
211,697.4,0.6419087014081895,0.9058875962887235,48.09351917617374,85.47794447054247
212,697.448,0.6438123621681517,0.9092168551374169,48.04162168008606,85.47794447054247
213,697.496,0.6457974940314485,0.9124884347356366,47.9897775662705,85.47794447054247
214,697.55,0.6480497821821016,0.9161593577152093,47.931442022523385,85.47794447054247
215,697.6,0.6502240413364586,0.9195051540958747,47.877412046047255,85.47794447054247
216,697.652,0.6525547533352603,0.9229350277877266,47.821239939131424,85.47794447054247
217,697.698,0.65458848275827,0.9259758487108616,47.77161403037253,85.47794447054247
218,697.748,0.6566978424110314,0.9293398337828546,47.717709437970264,85.47794447054247
219,697.796,0.6586820435717319,0.9325872832995378,47.66600032675345,85.47794447054247
220,697.848,0.6607840180745219,0.9361296976611648,47.61000572372869,85.47794447054247
221,697.894,0.6626007745446972,0.9392972398417083,47.56042247090891,85.47794447054247
222,697.942,0.6645384412084147,0.9425897613746143,47.50861914123945,85.47794447054247
223,697.996,0.6667839107488498,0.9462448811801172,47.45039262215938,85.47794447054247
224,698.048,0.668937342808922,0.9497809166005771,47.39426332808745,85.47794447054247
225,698.096,0.6708763286065043,0.9530625312692071,47.34251583842123,85.47794447054247
226,698.15,0.6730935388339224,0.9567340575305427,47.284293726819186,85.47794447054247
227,698.2,0.6751301719749395,0.9601354024580202,47.23042847107733,85.47794447054247
228,698.254,0.6774249547527343,0.9637511236165196,47.1722486641973,85.47794447054247
229,698.306,0.6795511484388242,0.9672737342581078,47.11628321840754,85.47794447054247
230,698.36,0.6817210244750285,0.9709581581549249,47.05814538294115,85.47794447054247
231,698.41,0.6836797685547035,0.9744026930219087,47.00429266002794,85.47794447054247
232,698.458,0.6855984739540796,0.9776918849925412,46.95256906382931,85.47794447054247
