,t,x,y,energy,sight
0,717.546,0.5020146359511213,0.5256499541536006,49.93986749120636,84.9196759806472
1,717.6,0.5040968621108216,0.5215269402978111,49.879734982412714,84.9196759806472
2,717.654,0.5061790882705218,0.5174039264420215,49.81960247361907,84.9196759806472
3,717.702,0.5080299559680331,0.5137390252368752,49.76615135469139,84.9196759806472
4,717.76,0.510266421102526,0.5093106029473234,49.70156458598711,84.9196759806472
5,717.81,0.5121944082874336,0.5054929975252961,49.6458863371041,84.9196759806472
6,717.862,0.5141995149597375,0.5015226878863877,49.58798095826578,84.9196759806472
7,717.916,0.5162817411194377,0.497399674030598,49.52784844947214,84.9196759806472
8,717.966,0.5182097283043453,0.4935820686085706,49.47217020058913,84.9196759806472
9,718.018,0.5202148349766492,0.4896117589696621,49.41426482175081,84.9196759806472
10,718.066,0.5220657026741605,0.4859468577645158,49.36081370282313,84.9196759806472
11,718.116,0.5239936898590681,0.48212925234248843,49.305135453940125,84.9196759806472
12,718.166,0.5259216770439756,0.4783116469204611,49.24945720505712,84.9196759806472
13,718.216,0.5278496642288832,0.4744940414984337,54.193778956174114,84.9196759806472
14,718.27,0.5300342522307279,0.4704353059625256,54.13370827478886,84.9196759806472
15,718.318,0.5320236187252315,0.4668572852033777,54.08033317918892,84.9196759806472
16,718.37,0.5341821816663768,0.46299446881089856,54.02257427179841,84.9196759806472
17,718.42,0.5362689871145069,0.4592961649456596,53.96709053045788,84.9196759806472
18,718.47,0.5383581390108778,0.455589329822653,53.91155185351805,84.9196759806472
19,718.522,0.5404775143506221,0.4516957273984986,53.85374154184341,84.9196759806472
20,718.57,0.5424325375568017,0.4481095499034682,53.800426724037585,84.9196759806472
21,718.622,0.5445999575313878,0.44424121503124187,53.742609315746435,84.9196759806472
22,718.67,0.5466859760102599,0.44071870846365063,53.68923444369267,84.9196759806472
23,718.722,0.5488334757666379,0.4368437045680674,53.63144180936657,84.9196759806472
24,718.772,0.5508236826368853,0.4330841831616902,53.575910847843055,84.9196759806472
25,718.822,0.5529009748233468,0.4293660761744925,53.520346402622295,84.9196759806472
26,718.872,0.5550730143496627,0.42570542647257004,53.4647980036199,84.9196759806472
27,718.922,0.5573445413577565,0.4221207414520739,53.409331152704894,84.9196759806472
28,718.972,0.559522039111809,0.41847774061757803,53.353861926733664,84.9196759806472
29,719.022,0.5617882721141696,0.4148951224749317,53.29842437625106,84.9196759806472
30,719.074,0.5640890085851888,0.4111374779324331,53.240786832183666,84.9196759806472
31,719.124,0.5600700608957723,0.4124778990841643,53.185366116734244,84.9196759806472
32,719.174,0.5560511132063557,0.4138183202358956,53.12994540128482,84.9196759806472
33,719.226,0.5518714076093626,0.41521235823369607,53.072307857217424,84.9196759806472
34,719.276,0.547852459919946,0.41655277938542723,53.016887141768,84.9196759806472
35,719.328,0.5436727543229528,0.41794681738322764,52.959249597700605,84.9196759806472
36,719.38,0.5394930487259597,0.4193408553810281,52.90161205363321,84.9196759806472
37,719.43,0.5354741010365431,0.42068127653275933,52.846191338183786,84.9196759806472
38,719.48,0.5314714241849655,0.4220321128683876,52.79084814576667,84.9196759806472
39,719.534,0.527129652615199,0.42341929483294516,52.73110593952347,84.9196759806472
40,719.588,0.5228195989145126,0.42488193867037855,52.67140544062152,84.9196759806472
41,719.638,0.5188066010251886,0.4261761755885928,52.61611303226897,84.9196759806472
42,719.688,0.5147823739817788,0.4274649580376999,52.5607628849253,84.9196759806472
43,719.75,0.509807034599198,0.42911934340213875,52.49210636576874,84.9196759806472
44,719.802,0.5056268622191505,0.4305190047583257,52.43445458144959,84.9196759806472
45,719.854,0.5014495531028647,0.4319513209455327,52.376753081376854,84.9196759806472
46,719.904,0.4974106242483181,0.43328743515279866,52.32121969550071,84.9196759806472
47,719.958,0.4930120258849458,0.4346452882313544,52.261186754143615,84.9196759806472
48,720.008,0.4889584819252356,0.43597075668436497,52.20558580096782,84.9196759806472
49,720.058,0.4848947749706503,0.43729875669737844,52.149917989847054,84.9196759806472
50,720.108,0.4808596220445806,0.4387261259112501,52.094218353070126,84.9196759806472
51,720.158,0.4767900560578255,0.44005436848077695,52.03851441501734,84.9196759806472
52,720.208,0.4727322894926755,0.44137958295248125,51.982888278905996,84.9196759806472
53,720.26,0.4685280896083122,0.4428000760468319,51.925048238465024,84.9196759806472
54,720.31,0.4645137033143271,0.4442785743949278,51.86936250173457,84.9196759806472
55,720.36,0.4604988144463388,0.44576610586398974,51.81365371508202,84.9196759806472
56,720.412,0.45630835252290697,0.44730996225229297,51.755633706690865,84.9196759806472
57,720.462,0.4522533349647742,0.4487276995094409,51.69983458769959,84.9196759806472
58,720.514,0.44805563241413376,0.4502589866741104,51.64179875970667,84.9196759806472
59,720.566,0.4438767104576904,0.45184720621948715,51.583748409580906,84.9196759806472
60,720.618,0.4397231049837206,0.4534870325365839,51.525729830678564,84.9196759806472
61,720.668,0.43569265961121884,0.4549616527542665,51.46995616400923,84.9196759806472
62,720.72,0.4314643493918865,0.45636499736095937,51.41200465460074,84.9196759806472
63,720.77,0.42736187040298573,0.4576208776326257,51.3562395083805,84.9196759806472
64,720.822,0.4231109768878354,0.45895874475520904,51.29827938043776,84.9196759806472
65,720.872,0.41901708330377535,0.46022478303769887,51.24254763245606,84.9196759806472
66,720.922,0.41495449488391883,0.46154746503521665,51.186897181584406,84.9196759806472
67,720.974,0.4107278304758049,0.46291079047013933,51.12903533567291,84.9196759806472
68,721.024,0.4066497577671931,0.4642158520775457,51.073325218467545,84.9196759806472
69,721.076,0.40237107504939756,0.46546615206248665,51.01535762961346,84.9196759806472
70,721.128,0.3980758507984825,0.46670204429218476,50.957314043890214,84.9196759806472
71,721.18,0.39378873080477056,0.4679410012906848,50.89931486001513,84.9196759806472
72,721.232,0.3894845032278133,0.4691397360650777,50.84128061262188,84.9196759806472
73,721.284,0.38521790238409215,0.4704582759718943,50.78326134475283,84.9196759806472
74,721.334,0.38108913510354886,0.47167303784240194,50.72741071055196,84.9196759806472
75,721.384,0.37694602762652074,0.4728704517176496,50.6715030512585,84.9196759806472
76,721.438,0.37249699665518066,0.47424406810456665,50.611131944195506,84.9196759806472
77,721.49,0.3682223142358226,0.47560710550378504,50.55297802647949,84.9196759806472
78,721.542,0.3639857727280562,0.4770453324582931,50.49490553057286,84.9196759806472
79,721.596,0.3595559353122059,0.4784553447648654,50.43458195320859,84.9196759806472
80,721.65,0.35516003887560454,0.4799857810147465,50.37422085275547,84.9196759806472
81,721.698,0.3512737455577589,0.48140550340930127,50.32056657099737,84.9196759806472
82,721.76,0.3462098270216477,0.48308532356920564,50.25132073380791,84.9196759806472
83,721.814,0.3418034056711655,0.4845321032431446,50.191067363591536,84.9196759806472
84,721.862,0.3378754316324067,0.4857575791977295,50.13755897539882,84.9196759806472
85,721.912,0.33376626233572104,0.48694507887602867,50.081877597607246,84.9196759806472
86,721.962,0.32969771284616306,0.4882430989659546,50.02623925383936,84.9196759806472
87,722.012,0.32564661370772774,0.4895703432129431,49.97064963591,84.9196759806472
88,722.064,0.32145241237198213,0.49100344498723486,49.91284422323415,84.9196759806472
89,722.114,0.317428038698171,0.4924045169330126,49.85726541338029,84.9196759806472
90,722.164,0.31339607265635716,0.49381287570916543,49.80162536610613,84.9196759806472
91,722.218,0.30901015568167983,0.4952347227808481,49.74154624533458,84.9196759806472
92,722.272,0.30462435301265833,0.4966214227473503,49.681536412895994,84.9196759806472
93,722.322,0.30058318628577313,0.49797088466188855,49.625962492209624,84.9196759806472
94,722.372,0.2965120758533282,0.499236122988004,49.570371533162934,84.9196759806472
95,722.422,0.2924487941952877,0.5004938385619071,49.51484269182948,84.9196759806472
96,722.474,0.28819903990267826,0.501713848455257,49.457106869042505,84.9196759806472
97,722.526,0.2839622859408868,0.5029799270094416,49.3993680042373,84.9196759806472
98,722.578,0.2796999857811018,0.5041598228611172,49.34162456774991,84.9196759806472
99,722.628,0.2756186812182589,0.5053611730412424,49.2860895709189,84.9196759806472
100,722.68,0.27135772226764393,0.5065965789903315,49.22825753451508,84.9196759806472
101,722.73,0.26722407695195755,0.5076733897496937,49.17261275200067,84.9196759806472
102,722.78,0.26307518357404003,0.50871194738997,49.11693399995292,84.9196759806472
103,722.832,0.2587612401072384,0.5098025006897656,49.059017397650635,84.9196759806472
104,722.88,0.2547732160908379,0.510802397804003,49.00552973674048,84.9196759806472
105,722.932,0.2504465558503279,0.5118580558352469,48.94758798368754,84.9196759806472
106,722.986,0.24594114671729042,0.5129390313737341,48.88736395252788,84.9196759806472
107,723.036,0.2417892462330232,0.5140055626911874,48.83162253641752,84.9196759806472
108,723.088,0.2374330024915506,0.5150047303005362,48.77357979949897,84.9196759806472
109,723.14,0.23304509829490602,0.5158677477152056,48.71552038006947,84.9196759806472
110,723.194,0.2284847786970031,0.5167157522052154,48.6552629352116,84.9196759806472
111,723.244,0.22425686415973548,0.5175385946904678,48.59939002965076,84.9196759806472
112,723.292,0.22021173295052154,0.5183683702609356,48.545787829346644,84.9196759806472
113,723.342,0.21596861220542585,0.519146953683293,48.489871915618046,84.9196759806472
114,723.392,0.2117336805738746,0.5199216469037959,48.43401204093087,84.9196759806472
115,723.444,0.20733482462450933,0.520746866702946,48.37592943281897,84.9196759806472
116,723.496,0.20295964863718266,0.5216352981082509,48.317918016068326,84.9196759806472
117,723.552,0.1982587497877352,0.5226855128114645,48.255387257543575,84.9196759806472
118,723.602,0.1940968832619891,0.5237206954605413,48.1996331767647,84.9196759806472
119,723.656,0.18959243661886463,0.5248347410484697,48.13936503333905,84.9196759806472
120,723.706,0.18539868074703886,0.5258116806491444,48.083499804697176,84.9196759806472
121,723.76,0.18086740507051519,0.5268883153639647,48.023121205511124,84.9196759806472
122,723.816,0.17615298118072661,0.5278765371968512,47.96058979986385,84.9196759806472
123,723.868,0.17179025049263785,0.528803442070834,47.9026062816803,84.9196759806472
124,723.916,0.1677556677897725,0.5296755507552793,47.84901429925193,84.9196759806472
125,723.968,0.1634065222979015,0.5306884066001241,47.790996096785776,84.9196759806472
126,724.018,0.15924059695477058,0.5316982125856955,47.735255520189234,84.9196759806472
127,724.068,0.15508093790738442,0.5327241222126926,47.67952942101635,84.9196759806472
128,724.118,0.15088416656709636,0.5336433036024841,47.623726847424045,84.9196759806472
129,724.168,0.14670533011925002,0.5346679784719734,47.56788345101545,84.9196759806472
130,724.218,0.14254833700121822,0.535806954158395,47.51199158758971,84.9196759806472
131,724.272,0.1380361613664722,0.536993205538576,47.45156128294283,84.9196759806472
132,724.324,0.13358386004885325,0.537594394639507,47.39336913772732,84.9196759806472
133,724.376,0.1291315587312343,0.538195583740438,47.335176992511805,84.9196759806472
134,724.428,0.12467925741361534,0.538796772841369,47.27698484729629,84.9196759806472
135,724.478,0.12039819845436635,0.5393748392845719,47.22103086151214,84.9196759806472
136,724.528,0.11611713949511734,0.5399529057277747,47.16507687572799,84.9196759806472
137,724.582,0.11149359581912843,0.5405772174864337,47.10464657108111,84.9196759806472
138,724.632,0.10721253685987944,0.5411552839296365,47.04869258529696,84.9196759806472
139,724.684,0.10276023554226048,0.5417564730305675,46.99050044008145,84.9196759806472
140,724.732,0.09865041894138145,0.5423114168160422,46.93678461372866,84.9196759806472
141,724.782,0.09436935998213244,0.542889483259245,46.88083062794451,84.9196759806472
142,724.832,0.09008830102288345,0.5434675497024479,46.82487664216036,84.9196759806472
143,724.882,0.08580724206363446,0.5440456161456507,46.76892265637621,84.9196759806472
144,724.932,0.08152618310438546,0.5446236825888535,46.71296867059206,84.9196759806472
145,724.984,0.07707388178676651,0.5452248716897845,46.65477652537655,84.9196759806472
146,725.034,0.0727928228275175,0.5458029381329873,46.5988225395924,84.9196759806472
147,725.084,0.06851176386826852,0.5463810045761902,46.54286855380825,84.9196759806472
148,725.134,0.06423070490901953,0.546959071019393,46.4869145680241,84.9196759806472
149,725.184,0.05994964594977052,0.5475371374625959,46.43096058223995,84.9196759806472
150,725.234,0.05566858699052153,0.5481152039057988,46.3750065964558,84.9196759806472
151,725.284,0.051387528031272535,0.5486932703490017,46.31905261067165,84.9196759806472
152,725.334,0.04710646907202353,0.5492713367922045,46.2630986248875,84.9196759806472
153,725.386,0.04265416775440457,0.5498725258931355,46.20490647967198,84.9196759806472
154,725.438,0.03820186643678562,0.5504737149940665,46.14671433445647,84.9196759806472
155,725.49,0.033749565119166665,0.5510749040949975,46.088522189240955,84.9196759806472
156,725.544,0.029126021443177746,0.5516992158536566,56.028091884594076,84.9196759806472
157,725.596,0.024684803626171165,0.5522899532249304,55.96997893056685,84.9196759806472
158,725.65,0.020060277643108387,0.5528446589540914,55.90959872542177,84.9196759806472
159,725.7,0.015792744745431037,0.5534535900732738,55.853703315853956,84.9196759806472
160,725.752,0.01137101261685337,0.5541114212904303,55.79565394861458,84.9196759806472
161,725.808,0.02461794863287639,0.5549194742082231,55.73318350352487,84.9196759806472
162,725.858,0.028856055467965026,0.5555222250833489,55.677480116757,84.9196759806472
163,725.908,0.03310407018011905,0.5560990984604096,55.62173672608349,84.9196759806472
164,725.956,0.037194159803783836,0.5565329937301449,55.568238973619444,84.9196759806472
165,726.006,0.04144304013434143,0.5570644020422912,55.51252772342642,84.9196759806472
166,726.056,0.04570499750022472,0.5575561786211469,55.4567636544733,84.9196759806472
167,726.106,0.049955267983562444,0.5581635579207881,55.40097901887437,84.9196759806472
168,726.156,0.054200121360163965,0.5588461804752282,55.345156364684115,84.9196759806472
169,726.206,0.058444007230201656,0.5596016900074015,55.289261899530324,84.9196759806472
170,726.258,0.06282410361936475,0.5605183143884456,55.23118320750059,84.9196759806472
171,726.31,0.06719889829673935,0.5613973840040903,55.17318604616199,84.9196759806472
172,726.36,0.0713883431911602,0.5622722551413574,55.11748864787759,84.9196759806472
173,726.41,0.07556975957403694,0.5632437551943269,55.06170822625813,84.9196759806472
174,726.46,0.07975926863371961,0.5641591264086347,55.005956268715,84.9196759806472
175,726.51,0.08393163783376176,0.5651522688293157,54.95020050130274,84.9196759806472
176,726.562,0.08823734566712688,0.5662666316990982,54.892297199453424,84.9196759806472
177,726.612,0.0923746316720648,0.5673032830097511,54.836693473042125,84.9196759806472
178,726.664,0.09670225534600115,0.56832868972379,54.77879099067816,84.9196759806472
179,726.716,0.10102374397091274,0.5694097340994173,54.72084239943158,84.9196759806472
180,726.768,0.10536546100427177,0.5703540980391892,54.66296687962242,84.9196759806472
181,726.82,0.10970491778499998,0.571362487758578,54.605015548647394,84.9196759806472
182,726.874,0.11422691174058405,0.5722847973659617,54.544907869437345,84.9196759806472
183,726.928,0.11874987346931973,0.5732001305544296,54.48480301011915,84.9196759806472
184,726.978,0.1229597147630495,0.5739866479553415,54.42908728051161,84.9196759806472
185,727.028,0.12713375230632631,0.5748861361952025,54.373453644766215,84.9196759806472
186,727.078,0.1313168403639197,0.5757886397638076,54.31775931941336,84.9196759806472
187,727.126,0.13530404644592278,0.5767611779411354,54.26431877839267,84.9196759806472
188,727.178,0.13962726483038373,0.5778012058867735,54.206421988143454,84.9196759806472
189,727.226,0.14363527334427229,0.578661477383579,54.15301221959931,84.9196759806472
190,727.278,0.14798158950872917,0.5795676272032141,54.09515886047026,84.9196759806472
191,727.328,0.15214173639375864,0.5805370369857248,54.039514053665876,84.9196759806472
192,727.38,0.15645952753022666,0.5815955925876466,53.9816230321069,84.9196759806472
193,727.43,0.1606178731888259,0.5825412807111918,53.92602352007418,84.9196759806472
194,727.482,0.16491936516633868,0.5836476248497535,53.8681591651098,84.9196759806472
195,727.536,0.16939983885801022,0.5847950662089143,53.80798763813667,84.9196759806472
196,727.586,0.17354509819183714,0.5858235748706677,53.75234700613766,84.9196759806472
197,727.64,0.17803254385050973,0.5869155932913083,53.69221812522321,84.9196759806472
198,727.69,0.1821989688598436,0.5878938962724194,53.63652123085186,84.9196759806472
199,727.742,0.18649178584993875,0.5890237830795808,53.57867266501483,84.9196759806472
200,727.794,0.19081885122891992,0.5900719914162699,53.5207396557142,84.9196759806472
201,727.848,0.1953262226129496,0.5910571998662436,53.46064033417257,84.9196759806472
202,727.898,0.1995097317791967,0.5919595459190741,53.40494358690448,84.9196759806472
203,727.952,0.20402811824617356,0.592965939285313,53.34474621027975,84.9196759806472
204,728.0,0.2080095566517722,0.5939765554747302,53.29128263585906,84.9196759806472
205,728.05,0.21216017512783547,0.5949812471445682,53.23564497548426,84.9196759806472
206,728.102,0.21645404289938916,0.5961641013992305,53.1777017553095,84.9196759806472
207,728.152,0.22054269270256963,0.5974056276522978,53.12204805981801,84.9196759806472
208,728.202,0.22463791270832661,0.5986392351131984,53.06636878700267,84.9196759806472
209,728.254,0.22887728689908798,0.5999845806302733,53.008464532892894,84.9196759806472
210,728.306,0.23314864951625447,0.6012465710361579,52.950520799893226,84.9196759806472
211,728.354,0.23709089166762198,0.6024011200033236,52.897056400001425,84.9196759806472
212,728.406,0.24137896797953912,0.6035545055167802,52.83919848251524,84.9196759806472
213,728.458,0.24563905115213253,0.6048324704467075,52.7812947644798,84.9196759806472
214,728.506,0.24954466368403852,0.6060867594273487,52.72786716414639,84.9196759806472
215,728.558,0.2537875864892807,0.6074234294736318,52.66995799457728,84.9196759806472
216,728.606,0.2577131967129148,0.6086042006411428,52.6165478849952,84.9196759806472
217,728.658,0.2619944287894439,0.6098185589271349,52.55862826282062,84.9196759806472
218,728.71,0.26628788859849667,0.6110133990279454,52.500667089485745,84.9196759806472
219,728.76,0.27039737707012923,0.6122622831060773,52.44487209725384,84.9196759806472
220,728.81,0.27452106499393325,0.6134505624679665,52.38910005962583,84.9196759806472
221,728.86,0.2786511724920659,0.6146291156028707,52.33330568690307,84.9196759806472
222,728.91,0.2827923960082845,0.6157353202347783,52.277566021965576,84.9196759806472
223,728.964,0.28728161594449775,0.616813449506156,52.21744699156902,84.9196759806472
224,729.016,0.291631735179814,0.6177519938977534,52.159526802191515,84.9196759806472
225,729.07,0.2961772839863771,0.6186014258280493,52.09936061537698,84.9196759806472
226,729.124,0.3007209494607357,0.6194592860419961,52.03919631673956,84.9196759806472
227,729.18,0.30544654684203915,0.6202423504796527,51.97683673019016,84.9196759806472
228,729.234,0.3100113868343119,0.6210126301306658,51.91663765927582,84.9196759806472
229,729.288,0.3146005998506286,0.6216419707401256,51.85642072467245,84.9196759806472
230,729.34,0.31902803224117215,0.6222179948596938,51.79840752603006,84.9196759806472
231,729.39,0.3232915179358126,0.6226624449253804,51.74266679711712,84.9196759806472
232,729.442,0.32772996225300977,0.6230084692454352,51.68473573907244,84.9196759806472
233,729.492,0.33200733995834286,0.6233816849457257,51.6289499548097,84.9196759806472
