,t,x,y,energy
0,830.52,0.31205704776746696,0.05089727053206332,49.68739353031413
1,830.82,0.30813927064785396,0.032991201311790445,49.37467623239521
2,831.11,0.3048436011216983,0.01563309769020197,49.07243081615707
3,831.42,0.30111027182574673,-0.002974770025241558,48.74886115196069
4,831.71,0.2970771867552131,0.05162205459183343,48.44581523514671
5,832.01,0.29236586759672567,0.06952291640292113,48.13245334657806
6,832.29,0.2880403626100241,0.08627733930427894,47.83975340207717
7,832.62,0.28292114654737477,0.10607444165675514,47.4944468635235
8,832.92,0.2788163932752002,0.12419957252543881,47.18019890023272
9,833.24,0.2745585624518684,0.1436141071864379,46.844584799473395
10,833.54,0.27041408768376474,0.16182263924414597,46.5297786371709
11,833.86,0.2664972313889874,0.18139004145415888,46.1934523702159
12,834.18,0.2427643053941824,0.19003202310843706,45.8571261032609
13,834.5,0.2190313793993774,0.19867400476271524,45.520799836305905
14,834.81,0.19604010734191005,0.2070459244902972,45.19498376519325
15,835.12,0.1730488352844427,0.2154178442178792,54.869167694080595
16,835.45,0.1484479121802309,0.22400405800897003,54.52267886406324
17,835.78,0.12367480464276862,0.23226371626791295,54.17630314901843
18,836.1,0.09956553697603628,0.24017573171904538,53.84029361849318
19,836.42,0.0758015824295856,0.24858856893720635,53.50446628981553
20,836.74,0.05195501728134715,0.25675730576836264,53.168937282364965
21,837.05,0.028661054668424044,0.26445942768309494,52.843603900697865
22,837.39,0.027071202391631636,0.28536608763740406,52.48678664338556
23,837.73,0.025481350114839228,0.3062727475917132,52.12996938607325
24,838.07,0.023891497838046824,0.32717940754602226,51.77315212876094
25,838.42,0.022254885200172284,0.3487009692636934,51.405840246233566
26,838.75,0.020711793284462005,0.36899272745464046,51.05951761413633
27,839.08,0.019273583890253996,0.389278308529044,50.7131949820391
28,839.41,0.016688403101291074,0.4091476112814356,60.366872349941865
29,839.72,0.030277840602988194,0.4278019777534108,60.04166583805414
30,840.03,0.036286976641975395,0.44627821464816025,59.71681223976648
31,840.37,0.04251701181059681,0.4666034784317706,59.36054031563191
32,840.69,0.029196416634499223,0.4497074909788349,59.025225563505245
33,841.0,0.016292090057654675,0.4333395031338035,58.700389397382544
34,841.32,0.03897670542504603,0.4166525834164031,58.365525007582676
35,841.63,0.05211687515505649,0.40053242823854507,58.04146484472793
36,841.95,0.06579937825129271,0.38385379457726426,57.70644396074976
37,842.27,0.0792890797346125,0.3670224558417809,57.37106893099075
38,842.58,0.09292374465291219,0.35095522265163537,57.0460397960729
39,842.9,0.10712095048044686,0.3343822230664678,56.71027609158983
40,843.23,0.12109308230894542,0.3169609086587946,56.36391900417243
41,843.56,0.1355881360594507,0.29983971132408244,56.01787605432265
42,843.9,0.15086659335741134,0.2823662606138009,55.66134695447742
43,844.23,0.16569568426425552,0.26540673492440997,55.31530400462764
44,844.54,0.17975732390957957,0.24958129670457357,54.99045302932837
45,844.86,0.1946896266479445,0.23354143817916945,54.65556019279404
46,845.17,0.20887853808741125,0.21794252809742973,54.33156974615737
47,845.5,0.19136957571060179,0.2027233726484073,53.98667669006027
48,845.81,0.1749217625687505,0.18842659025690142,53.6626862434236
49,846.12,0.15847394942689919,0.17412980786539553,53.33869579678693
50,846.44,0.1414955616675688,0.1593718389451314,53.00425404542004
51,846.77,0.12367086666875696,0.1443074739053162,52.65910849486306
52,847.1,0.10531683605618507,0.12967169239733162,52.31427420830148
53,847.43,0.10610933933574603,0.10958830527933121,51.96943992173989
54,847.76,0.106901842615307,0.08950491816133081,51.624605635178305
55,848.08,0.10767033064397218,0.07003011853175468,51.29022087245192
56,848.42,0.10848848054362635,0.049349109825300476,50.935006981080846
57,848.79,0.10885013071139853,0.02681079520737306,50.54829555793154
58,849.13,0.10895840737231631,0.006100169431910852,50.19294934503844
59,849.47,0.10892450221517151,0.04585270233941644,49.83765367676098
60,849.78,0.10879703818282921,0.06469691858843828,49.51391052736203
61,850.11,0.10935119378432655,0.08481685616720744,49.16887112608942
62,850.43,0.10949809637363292,0.10432381554374784,48.83433312277835
63,850.75,0.1099780725353378,0.12384937300473202,48.49965684709397
64,851.07,0.11036420124756548,0.14344939747919883,48.16451152679506
65,851.41,0.11058126356816196,0.1642852251333617,47.808360970537905
66,851.73,0.11126886713725385,0.1839384899378231,47.47284530864009
67,852.05,0.11262500989553563,0.20362481824999984,47.13699328910413
68,852.36,0.11397435914751995,0.22271956513909336,46.8114767802911
69,852.69,0.11518098563356724,0.24312435227978443,46.46451343937895
70,853.02,0.1159709064467401,0.2634781041500841,46.117949926890034
71,853.34,0.1160434828205085,0.28319644918198894,45.782060565862075
72,853.8,0.1471465310047232,0.2992989250006149,45.29921960938438
73,854.12,0.16878343408939428,0.3105006473092242,44.96333024835642
74,854.44,0.1904203371740654,0.32170236961783355,44.62744088732846
75,854.75,0.21141550214843116,0.3325075490802069,44.302080672893375
76,855.07,0.23270828153244985,0.3441328482771424,43.96597094006434
77,855.37,0.2530148249446607,0.35458277550824235,43.65117542423528
78,855.68,0.2735501552195056,0.36576511551201146,43.32622632183663
79,855.99,0.293685636527239,0.37722850290159454,43.00174601981483
80,856.3,0.3138109559845897,0.3887210329961758,42.67719166890878
81,856.6,0.33299632180820615,0.40019960258097564,42.362803907151786
82,856.91,0.353161188778321,0.4117976619442484,42.03768865132792
83,857.22,0.37350735621532444,0.42314719026588044,41.71283759030668
84,857.53,0.3939354780619953,0.4344490213501488,41.387852115460646
85,857.83,0.4132782029017375,0.44569943077977425,41.07377344121375
86,858.14,0.43279204055342074,0.45778924167545504,40.74914303187296
87,858.49,0.4549099040294862,0.47136417973327427,40.38260978256202
88,858.88,0.4795439622569532,0.4865288432131333,39.97407454672504
89,859.22,0.5013158131961212,0.4995906456562092,39.617451035716186
90,859.53,0.5208302896898139,0.5119093415615305,39.29188013956378
91,859.83,0.5395493420263652,0.5239041717263824,38.97711468146677
92,860.14,0.5629834787155318,0.5313329329365591,38.651857041433196
93,860.44,0.5856616755114994,0.5385220566883431,38.33709158333619
94,860.75,0.609095812200666,0.5459508178985198,38.01183394330261
95,861.11,0.6363096483558272,0.5545777664006606,37.63411539358621
96,861.51,0.6665472440837841,0.5641632647363727,37.21442811612353
97,861.87,0.6937610802389452,0.5727902132385135,46.83670956640712
98,862.18,0.717150998392828,0.5803180280746418,46.51139880021835
99,862.49,0.7306344837873954,0.5641272842393301,46.18608803402958
100,862.79,0.7436830180402024,0.5484588224632219,45.87127116352432
101,863.1,0.7571665034347697,0.5322680786279101,45.54596039733555
102,863.42,0.7710849399710972,0.5155550527333947,45.21015573546327
103,863.82,0.7884829856415067,0.4946637703652506,44.79039990812292
104,864.18,0.8041412267448752,0.47586161623392076,44.41261966351661
105,864.53,0.8193645167064835,0.45758174416179453,54.045333314593805
106,864.85,0.8437120143922994,0.45017607133066984,53.709528652721524
107,865.16,0.8672986527754336,0.44300182577551767,53.38421788653275
108,865.48,0.8916461504612496,0.43559615294439286,53.04841322466047
109,865.78,0.914471929541702,0.4286533346652133,62.73359635415521
110,866.09,0.93886187563804,0.43411145444953503,62.40828558796644
111,866.38,0.961678276824937,0.439217437473578,62.10396261314469
112,866.68,0.9852814504665546,0.4444994888777603,71.78914574263942
113,866.99,0.9666488853048743,0.45750412752129394,71.46383497645066
114,867.3,0.9480163201431939,0.47050876616482756,71.13852421026189
115,867.6,0.9299848054706,0.4830939003359891,70.82370733975662
116,867.9,0.9119532907980061,0.4956790345071506,70.50889046925136
117,868.2,0.8939217761254122,0.5082641686783121,80.19407359874609
118,868.5,0.9109552759368853,0.5216084752445572,79.87925672824082
119,868.8,0.9279887757483583,0.5349527818108022,79.56443985773555
120,869.12,0.9461578422139294,0.5491867088147969,79.22863519586328
121,869.44,0.9643269086795005,0.5634206358187915,88.892830533991
122,869.77,0.9828062524392926,0.578225464188372,88.54679570251048
123,870.09,1.000107880771637,0.5929017426543923,88.21172702704796
124,870.39,1.0159313337245808,0.6068288915814601,87.89803610790104
125,870.7,1.021528708606213,0.6252645648040693,87.57388882478254
126,871.07,1.0282094463681615,0.6472684328439577,87.18700335783467
127,871.54,1.0366957889306365,0.6752192922459782,86.69555425117115
128,871.95,1.0440987686127956,0.6996019568307196,86.26684332833702
129,872.25,1.0495155830143752,0.7174429309171156,85.9531524091901
130,872.55,1.054932397415955,0.7352839050035117,95.63946149004317
131,872.85,1.0609597283998915,0.7158095347743922,95.326228993174
132,873.16,1.0673432555492746,0.6975924765963343,95.00254204199979
133,873.47,1.0742937111822195,0.6795609670910217,94.67927608421168
134,873.79,1.0812089105044704,0.6609130315606948,94.34570794759202
135,874.2,1.090187548465765,0.6370660008133934,93.91845146854115
136,874.67,1.1177236247207571,0.6175625371166389,93.42866965109259
137,875.3,1.1546336843817038,0.5914195964167341,92.77215359791687
138,875.81,1.1845132564881844,0.5702562634691921,92.24068822153652
139,876.13,1.2032612233000937,0.5569773094628913,49.66653152854566
140,876.46,1.222694987603232,0.5432655949215807,49.322215032340544
141,876.77,1.2406435232052302,0.5300439899640741,48.998318038999486
142,877.09,1.258957854167967,0.5162434610673776,48.66401125717646
143,877.41,1.276856708845801,0.5020585380381137,48.32932799767113
144,877.73,1.2946256879967517,0.4877652899006118,47.99456624749855
145,878.05,1.3124581532499657,0.473526762953298,47.65985198209249
146,878.7,1.3491339387707038,0.44513778398304193,46.980929083150954
147,879.13,1.2729410569930184,0.41907985576510515,46.53179547308194
148,879.51,1.2695550379802918,0.39606478962817093,46.13459645639162
149,879.82,1.2660430162103293,0.37732803660744324,45.81036349113665
150,880.14,1.2628860794508456,0.3579002755222215,45.47541436943938
151,880.45,1.260454709223351,0.3390232183684604,45.150900208999666
152,880.75,1.258016547232279,0.32082680661799184,44.83727084925428
153,881.05,1.2562098262176113,0.3026597054010696,44.52409267341916
154,881.35,1.2537992929515656,0.2845981493719869,44.21133531641829
155,881.67,1.251019330016544,0.26527621147528574,43.877265579667586
156,881.97,1.2491298177175758,0.24708461150252656,43.56390085381434
157,882.28,1.24781270848225,0.22821342609613407,43.23982129781213
158,882.59,1.245774205763423,0.20932484807480992,42.91540043088606
159,882.9,1.2443669887233153,0.19048125644449349,42.59147381834165
160,883.22,1.2430777617503208,0.17098342045347462,42.256842848014394
161,883.53,1.2421001740253297,0.15214720197143589,41.933061145678586
162,883.86,1.2416400195278152,0.1320576543973436,41.58822474026016
163,884.18,1.2405809348152204,0.11263713927812888,41.25413805329716
164,884.48,1.2397200299914033,0.0945026584641405,40.94141807830634
165,884.79,1.2394175482726477,0.07570549483125712,40.617968856381516
166,885.08,1.239087345363468,0.05810846013802845,40.3153037853232
167,885.38,1.2394121873140622,0.03990170678072687,40.00218437690984
168,885.69,1.2403548695469113,0.021044794499522637,39.67827672790779
169,885.99,1.240546219410335,0.0027276373388850196,39.364457569061535
170,886.28,1.2410315953734563,0.046204808879805805,39.061233037237
171,886.58,1.2418271882243344,0.06442554364201772,38.74797206653028
172,886.88,1.2421975586037448,0.08262472959658737,38.434897954929426
173,887.17,1.2432111517306426,0.10016001020919627,38.1325338521812
174,887.48,1.2443576056654244,0.11895541861228306,37.8089788172984
175,887.77,1.245220288751183,0.13651327231986726,37.506499386630196
176,888.08,1.246813121478535,0.15519961795137516,37.18352401746512
177,888.4,1.2484942408344408,0.17456217374539643,36.84964973797229
178,888.71,1.2508462399830291,0.19333906279638569,36.525809897586896
179,889.05,1.2541489655951872,0.2138781207279047,36.170610234855864
180,889.43,1.2577082772905444,0.23687652257257205,35.773423625082806
181,889.82,1.2609440375684142,0.2604303730725501,35.366319477702525
182,890.15,1.2643865459634944,0.28021436058704247,35.02238395604018
183,890.47,1.267191896235142,0.2995007627154442,34.68852717669351
184,890.78,1.269736941806817,0.31813379968332317,34.365513039717115
185,891.09,1.2716545661165017,0.33675110962363985,34.04286863625086
186,891.41,1.2734630118144032,0.3559353011615226,33.71009186115958
187,891.72,1.2758915126786967,0.3744079774714732,33.38815483831495
188,892.01,1.2775023161315,0.3917035677605215,33.087160456206874
189,892.32,1.279778207521232,0.4101272603629237,32.76560523500992
190,892.63,1.2818640995948547,0.4285228413947718,32.444309931670325
191,892.93,1.2834498621583124,0.4463422823401504,32.13342602457666
192,893.26,1.2847449039395002,0.4659202883008457,31.791728355228344
193,893.57,1.2867223204509868,0.4843372826732901,31.470339431039633
194,893.89,1.2892071565887622,0.5032593872617326,31.138960554999624
195,894.2,1.2908748124329252,0.521596148234139,30.81819398802293
196,894.5,1.2918086238328343,0.5393417012293035,30.507948277568918
197,894.8,1.2926675475560758,0.5571597635181076,30.197252419962528
198,895.09,1.29292608703246,0.5743468107018316,29.897215421281274
199,895.4,1.2938358806774195,0.592741318973255,29.57627098547384
200,895.69,1.294082995257973,0.6100191619358244,29.275653532406434
201,895.99,1.2937777546847862,0.6278828150874801,28.96473100933187
202,896.29,1.29367469640942,0.6457928918650832,28.653519695532793
203,896.58,1.2935479489143829,0.6631404438799906,28.352460799242184
204,896.88,1.2934276905853952,0.6811612849536154,28.040540216852037
205,897.18,1.2937494270326835,0.69919322763866,27.728539696039245
206,897.48,1.2942606582840694,0.71719972930017,27.41668620707015
207,897.77,1.2954476738023175,0.7345298121532612,27.115594529458985
208,898.07,1.2973899492974668,0.7162861408646489,26.803852865509448
209,898.37,1.2999419452184082,0.6983209866081054,26.49163943296509
210,898.68,1.3026456101063277,0.6798416763872004,26.169523344125096
211,899.0,1.3056313266474704,0.6607509211897866,25.836813393145025
212,899.35,1.2777965566158613,0.6632376685991488,25.472911884260576
213,899.68,1.251552344871773,0.6655823161565475,25.129804747312377
214,899.99,1.226898691415205,0.6677848638619825,24.807491982300434
215,900.32,1.2006544796711165,0.6701295114193812,24.464384845352235
216,900.63,1.1760008262145485,0.6723320591248163,24.14207208034029
217,900.94,1.1513471727579805,0.6745346068302515,33.81975931532835
218,901.25,1.1266109197799925,0.6764715694638428,33.49724130297749
219,901.67,1.0932468875248469,0.6798380396754732,33.060431085637
220,901.95,1.0709625393911755,0.6822891335570489,32.768842002542925
221,902.24,1.047814181265229,0.684535352119463,32.4667708689116
222,902.53,1.024513468432721,0.6863718846291154,32.1642786332843
223,902.83,1.0003287920832973,0.6877618496915833,31.851266086298686
224,903.13,0.9761165451807495,0.6894943931482019,31.537933785619938
225,903.42,0.9527307005800439,0.6910102423186275,31.23523038952185
226,903.73,0.9276886089839104,0.6928540402857135,30.911311903599717
227,904.03,0.9034117268051419,0.6942593493263481,30.597850541614896
228,904.33,0.879046995586103,0.6951376124010198,30.284179079260625
229,904.62,0.8555414730615241,0.6954857860709981,29.981297672336844
230,904.91,0.8320435759793562,0.6960171297647486,29.67842361769487
231,905.21,0.8077156500153069,0.696352631348585,29.365044078576833
232,905.5,0.784186214476946,0.6963284262009681,29.062069785257457
233,905.78,0.7614999683523567,0.6960041955332397,28.76967599640373
234,906.07,0.7379807534652199,0.6952954035066067,28.466659766360777
235,906.36,0.7144092046226104,0.6943157796344595,28.16330986076581
236,906.64,0.6916029005691624,0.6931422912931217,27.87010223876056
237,906.93,0.668038148539392,0.6917518232701226,27.56660900823338
238,907.22,0.6444113986719557,0.6904547205308498,27.262864286305888
239,907.51,0.6207403491620891,0.6887629200791116,26.958695613439804
240,907.8,0.5969872385536271,0.687166306843614,26.65419080496434
241,908.09,0.5731997398931992,0.6858547856985678,26.34966980548817
242,908.38,0.5494008457252642,0.6850466798271158,26.045285200762777
243,908.66,0.5266889039549246,0.687776680052951,25.751396616889984
244,908.98,0.5007323990745367,0.6908966803110486,25.41552394960679
245,909.34,0.4715313310841002,0.6944066806014082,25.037667198913198
246,909.7,0.442218050791548,0.6973854138793376,24.659774941255293
247,909.99,0.418624086494791,0.6999407322922013,24.355316304482812
248,910.28,0.395012099355409,0.7022540448917275,24.05098296377785
249,910.6,0.3689243927211564,0.7045913867034796,23.715180159587806
250,910.9,0.35190853798185634,0.6912347997313658,23.40036503065964
251,911.2,0.33489268324255633,0.677878212759252,23.085549901731472
252,911.49,0.318444023661233,0.6649668453528752,22.781228610434244
253,911.79,0.3012165319185204,0.6517486777028748,22.466344547304733
254,912.1,0.28365666740801443,0.6378475348081367,22.140651699428314
255,912.39,0.26710712809424597,0.6248722738769174,21.835700217734775
256,912.68,0.25070212387307655,0.611803930987062,21.530794197817915
257,912.98,0.23398471478728772,0.5981025910875288,21.215345850940462
258,913.27,0.21817233483156298,0.5845496495639613,20.91005521533996
259,913.57,0.20176105644544284,0.570566002528331,20.594243705543647
260,913.88,0.18443043600122047,0.556314862690787,20.26765937934689
261,914.19,0.16691285962980482,0.5422394326498047,19.94129299723429
262,914.48,0.15067119039103508,0.5289512660542218,19.635889867401993
263,914.77,0.1347839532632498,0.5153574685753005,19.33016579567603
264,915.06,0.11869018829692399,0.5018545857007708,19.024220336583806
265,915.35,0.10282286369402899,0.4882631863018137,18.71857079229257
266,915.63,0.08779285663816211,0.47493711513395703,18.423383058325808
267,915.92,0.07225117904262877,0.46115063698235553,18.117806614541305
268,916.21,0.05699922161902551,0.44717749368579207,17.812201213805487
269,916.5,0.04151060360966349,0.43335378000142155,17.506606700973734
270,916.8,0.025002392326312958,0.4193839215672863,17.190553321871366
271,917.1,0.008388381127457838,0.4054686461255047,16.874422974355586
272,917.41,0.05079225109745548,0.39129636065101114,16.547614506527037
273,917.71,0.06826443333688818,0.37797227142823486,16.23142411186135
274,918.0,0.08462744365412891,0.3647050628157427,15.925725112194637
275,918.29,0.10139661243449778,0.3516916442310335,15.619866910484077
276,918.59,0.11863042047791186,0.3382071300763057,15.303736941515387
277,918.89,0.1357266888739562,0.3246440332004853,14.987697892285446
278,919.18,0.15208745929875703,0.3114341298428616,14.682275174097795
279,919.81,0.18869986979020378,0.2835482906408134,14.01897410638513
280,920.07,0.20425585753722422,0.27228310730313815,13.744804682823236
281,920.34,0.22074695756827983,0.26085392548794145,13.460098451429532
282,920.61,0.23723056426773118,0.24932136636573848,13.174968412652513
283,920.91,0.2556924896881589,0.23666104314774214,12.85830668431302
284,921.18,0.2724105262612087,0.2252760927975975,12.572988411654341
285,921.45,0.2891186147726505,0.21381251377496063,12.287366455989584
286,921.72,0.3058880500275683,0.20239480228957415,12.00172458290341
287,921.98,0.32229658181086346,0.1915810213493773,11.72650245639548
288,922.23,0.3378744180871035,0.1810738511213334,11.462117068864474
289,922.49,0.3543062453135837,0.1703338477761697,11.187121743310366
290,922.75,0.37075374453495896,0.15969529582627132,10.912494895950074
291,923.02,0.3876845501767968,0.1484597712839608,10.627054425929545
292,923.29,0.4045540341924933,0.13723119039245624,10.341863723433052
293,923.56,0.38357612123546725,0.1310170110836976,10.05667302093656
294,923.84,0.36182124853929204,0.12457267698572567,9.760919699829085
295,924.1,0.341620295321415,0.11858865246618033,9.486291615943573
