,t,x,y,energy,sight
0,757.34,0.9358120319400435,0.7213159899797501,49.939523618085424,77.18395937984016
1,757.396,0.9407115700618286,0.722008212108892,49.87903981779714,77.18395937984016
2,757.452,0.9455924743197957,0.7227681147329759,49.81861036557021,77.18395937984016
3,757.504,0.9501117980362442,0.7235062525944508,49.76254633652359,77.18395937984016
4,757.566,0.9555062617939998,0.7242832957564908,49.69576273185883,77.18395937984016
5,757.624,0.9605666572291094,0.7249371193176327,49.63326253036535,77.18395937984016
6,757.68,0.9654590944348007,0.7255861721099091,49.572861249159146,77.18395937984016
7,757.74,0.970694001671571,0.7263983049384917,49.50808347980539,77.18395937984016
8,757.796,0.9756051172505054,0.7270187718375721,49.44758714240236,77.18395937984016
9,757.85,0.980351892417319,0.7274894628938531,49.3892725651251,77.18395937984016
10,757.904,0.9851035186164996,0.7280313306055755,49.33087883094059,77.18395937984016
11,757.962,0.9785242041908033,0.7285253507984358,49.26809967836862,77.18395937984016
12,758.022,0.9732291862206065,0.7290345581098971,49.20318163922781,77.18395937984016
13,758.08,0.9681173543698407,0.7296684507730354,49.140370871985,77.18395937984016
14,758.134,0.9633726213221154,0.7303320776724452,49.08192277336324,77.18395937984016
15,758.188,0.9586252157149036,0.730915474861134,49.02352459648134,77.18395937984016
16,758.246,0.9534971227598644,0.7313981520810355,48.960715276837995,77.18395937984016
17,758.302,0.9485536368201366,0.7318285213658989,48.900141953817446,77.18395937984016
18,758.354,0.9439567903409332,0.7321308027865799,48.84390149087904,77.18395937984016
19,758.412,0.9388349145883735,0.7324134086243805,48.78122716168232,77.18395937984016
20,758.472,0.9335466806987439,0.7325976034596239,48.71648835701064,77.18395937984016
21,758.532,0.9282640607068912,0.7328489762683412,48.651767750014876,77.18395937984016
22,758.588,0.9233529926289374,0.7332243296179732,48.591429900635426,77.18395937984016
23,758.64,0.9187767738867507,0.7334571694089729,48.53534710893762,77.18395937984016
24,758.698,0.9136859536346726,0.7338738674935951,48.47281243188988,77.18395937984016
25,758.754,0.9087792242330824,0.734259476197905,48.41249719499581,77.18395937984016
26,758.81,0.9038755855376864,0.7346544865313012,48.35219690356499,77.18395937984016
27,758.864,0.8991669212422966,0.7351326381230139,48.294120249368085,77.18395937984016
28,758.92,0.8942854178598937,0.7356177828496749,48.23390937156757,77.18395937984016
29,758.974,0.8895879273788496,0.7361623998507975,48.17585782802937,77.18395937984016
30,759.034,0.8843509540429866,0.7366171586200362,48.11134148580257,77.18395937984016
31,759.092,0.8792958483155848,0.7371936822853151,48.04893462060573,77.18395937984016
32,759.148,0.8744288308974613,0.7378975024245984,47.9886463549345,77.18395937984016
33,759.204,0.8695800301395147,0.7386452207439427,47.92843188252501,77.18395937984016
34,759.258,0.864903318576576,0.7393030586553724,47.870420047528015,77.18395937984016
35,759.314,0.8600243142957256,0.7398473246118409,47.810185390160086,77.18395937984016
36,759.368,0.8553179921496852,0.7403549268014259,47.75210401718497,77.18395937984016
37,759.426,0.8502921828352505,0.7410420402844294,47.68979515674767,77.18395937984016
38,759.48,0.8456238191034492,0.741688673777971,47.63184614839406,77.18395937984016
39,759.536,0.8408007469393881,0.742423676369785,47.571806769224104,77.18395937984016
40,759.594,0.8358166314873265,0.7432375290580756,47.50964150459974,77.18395937984016
41,759.654,0.8306896626662335,0.7441633475975539,47.44542462764347,77.18395937984016
42,759.71,0.8259153105551686,0.7450967799732116,47.38547492127751,77.18395937984016
43,759.77,0.8207988984617949,0.7460190441061539,47.321328572872005,77.18395937984016
44,759.83,0.8156780144505651,0.7469888581422981,47.25709877342531,77.18395937984016
45,759.886,0.8108962442303902,0.7478766111000872,47.19715716051019,77.18395937984016
46,759.944,0.8059077476557374,0.7486692935041295,47.134985762485,77.18395937984016
47,760.004,0.8007340740170523,0.7494512837562695,47.07062457538004,77.18395937984016
48,760.068,0.7952262193440719,0.7503252202190815,47.00200150251597,77.18395937984016
49,760.126,0.7902414171458945,0.7511176302828201,46.93985372900247,77.18395937984016
50,760.184,0.7852802209037558,0.7520195504410022,46.8777371873666,77.18395937984016
51,760.246,0.7799710972705158,0.7528907366196604,46.81140167577264,77.18395937984016
52,760.304,0.7749858949204604,0.7535875526618261,46.749341748018686,77.18395937984016
53,760.362,0.7699885914702095,0.7542156880673287,46.687262880884575,77.18395937984016
54,760.42,0.7649857155948585,0.7548445200060698,46.6251480727128,77.18395937984016
55,760.478,0.7599813156145269,0.7555433238546564,46.56296470164398,77.18395937984016
56,760.536,0.7549961134473566,0.7562830432806897,46.500865618029636,77.18395937984016
57,760.592,0.7501753890540555,0.7569386639701341,46.44091361730691,77.18395937984016
58,760.656,0.7446694017143263,0.7576494856329086,46.372451035030174,77.18395937984016
59,760.714,0.7396682490568846,0.7582840532019259,46.31034256925117,77.18395937984016
60,760.774,0.7344976897825154,0.7590732655953505,46.24599414697381,77.18395937984016
61,760.832,0.7294897657762875,0.7596895087932029,46.18385722168034,77.18395937984016
62,760.904,0.7232814333482822,0.7604527556217768,46.10677645447803,77.18395937984016
63,761.012,0.7139500835954692,0.7613695575642783,45.99119581603408,77.18395937984016
64,761.068,0.7090989331747724,0.7617645144885729,45.931230380984424,77.18395937984016
65,761.122,0.708119223978659,0.7571745341287086,45.87340656861512,77.18395937984016
66,761.18,0.7070669437309818,0.7522445552236693,45.81129951088512,77.18395937984016
67,761.234,0.7060872345348683,0.747654574863805,45.753475698515814,77.18395937984016
68,761.292,0.7050349542871911,0.7427245959587657,45.69136864078582,77.18395937984016
69,761.348,0.7040189595652958,0.7379646163263139,45.63140320573616,77.18395937984016
70,761.402,0.7030392503691825,0.7333746359664497,45.573579393366856,77.18395937984016
71,761.458,0.7020232556472872,0.7286146563339979,45.5136139583172,77.18395937984016
72,761.516,0.7009709753996098,0.7236846774289585,45.451506900587205,77.18395937984016
73,761.576,0.6998824096261506,0.7185846992513316,45.38725822017686,77.18395937984016
74,761.632,0.6988664149042553,0.7138247196188797,45.327292785127206,77.18395937984016
75,761.688,0.6978504201823599,0.7090647399864279,45.26732735007755,77.18395937984016
76,761.748,0.6967618544089006,0.703964761808801,45.20307866966721,77.18395937984016
77,761.808,0.6956732886354413,0.698864783631174,45.13882998925686,77.18395937984016
78,761.862,0.6946935794393279,0.6942748032713097,55.081006176887556,77.18395937984016
79,761.918,0.6935521811809101,0.6895535945663969,55.02110461384657,77.18395937984016
80,761.974,0.692326714598433,0.6848483138007444,54.9611708950959,77.18395937984016
81,762.032,0.6909986722660849,0.6799972543773232,54.899137246692625,77.18395937984016
82,762.092,0.6897816478427001,0.6749335315330283,54.83493297078422,77.18395937984016
83,762.152,0.6885603237842132,0.669862568019942,54.77067720334778,77.18395937984016
84,762.212,0.6873687287959447,0.6647934386855477,54.70647690111071,77.18395937984016
85,762.27,0.6861612255462269,0.6599155016527897,54.644471348648594,77.18395937984016
86,762.33,0.684817858974548,0.6548819919251774,54.580255758707445,77.18395937984016
87,762.388,0.6835491012290028,0.6500015690055068,54.5181383629264,77.18395937984016
88,762.446,0.6821718914261602,0.6451398810887399,54.45595475737595,77.18395937984016
89,762.502,0.6809821339557066,0.6404096955727544,54.39592329995603,77.18395937984016
90,762.558,0.6796555330772975,0.6357011985897226,54.335800365460024,77.18395937984016
91,762.616,0.6783335983499683,0.6308214606234064,54.27359989489855,77.18395937984016
92,762.676,0.6770164442274506,0.6257520648598531,54.20920492905616,77.18395937984016
93,762.736,0.6758093196535884,0.6206579042104574,54.144825879841,77.18395937984016
94,762.8,0.6745290170322759,0.6152070812803394,54.0760594030466,77.18395937984016
95,762.858,0.6732914554687226,0.610298749137345,54.013818493366124,77.18395937984016
96,762.92,0.6720479901187631,0.6050436451839649,53.94735441321292,77.18395937984016
97,762.986,0.670743123428424,0.5994524700549645,53.8766483759593,77.18395937984016
98,763.054,0.6694984338377017,0.5936804926746919,53.80386850915757,77.18395937984016
99,763.122,0.6681059484151881,0.5879345042664204,53.73103966957778,77.18395937984016
100,763.184,0.6669718900795645,0.5826541640926666,53.664572178160384,77.18395937984016
101,763.24,0.6658054332934551,0.577910498709459,53.60449299204715,77.18395937984016
102,763.302,0.664567460062061,0.5726431594984008,53.537960764642534,77.18395937984016
103,763.364,0.663367169721956,0.5673539724754002,53.4713465734346,77.18395937984016
104,763.426,0.6605821154869698,0.5626999775062352,53.40473238222667,77.18395937984016
105,763.482,0.6580665826295629,0.5584963691469895,53.344564725651765,77.18395937984016
106,763.546,0.6551916879353836,0.5536922453078514,53.27580168956616,77.18395937984016
107,763.604,0.6525863146187836,0.5493385080786325,53.21348518811358,77.18395937984016
108,763.666,0.6498012603837975,0.5446845131094675,53.14687099690565,77.18395937984016
109,763.724,0.6471958870671974,0.5403307758802487,53.08455449545307,77.18395937984016
110,763.786,0.6444108328322112,0.5356767809110836,53.01794030424514,77.18395937984016
111,763.846,0.6417156190564182,0.5311729148118918,52.95347495791488,77.18395937984016
112,763.904,0.6391102457398181,0.5268191775826729,52.8911584564623,77.18395937984016
113,763.962,0.6365048724232182,0.522465440353454,52.82884195500972,77.18395937984016
114,764.024,0.633719818188232,0.517811445384289,52.76222776380179,77.18395937984016
115,764.094,0.6305754021164733,0.5125569349352318,52.687018193083155,77.18395937984016
116,764.156,0.6277903478814871,0.5079029399660668,52.62040400187522,77.18395937984016
117,764.216,0.6250951341056941,0.503399073866875,52.55593865554496,77.18395937984016
118,764.278,0.6223100798707079,0.49874507889770997,52.48932446433703,77.18395937984016
119,764.34,0.6195250256357216,0.49409108392854495,52.4227102731291,77.18395937984016
120,764.402,0.6167399714007356,0.48943708895938,72.35609608192117,77.18395937984016
121,764.464,0.6139252862011284,0.4848195089886279,72.28958334230484,77.18395937984016
122,764.53,0.6110181680521861,0.4798550046281485,72.21880284948811,77.18395937984016
123,764.592,0.6083700183441726,0.47514117105019504,72.15229695911259,77.18395937984016
124,764.654,0.6057324863706388,0.47041537049948223,72.08575744303809,77.18395937984016
125,764.714,0.6030533708788142,0.46590819039790726,72.02132665543277,77.18395937984016
126,764.772,0.6003425505469495,0.46163202137299797,71.95907886511064,77.18395937984016
127,764.832,0.5975084849218673,0.45720931253158825,71.89458713374866,77.18395937984016
128,764.894,0.5945774284709593,0.45263243930393504,71.82790064517131,77.18395937984016
129,764.954,0.5917873179879967,0.4481800841159159,71.76339922793288,77.18395937984016
130,765.17,0.5818081601360061,0.43217051291581104,71.53151803187934,77.18395937984016
131,765.226,0.5791363469462159,0.4280745582308175,71.47140450765005,77.18395937984016
132,765.286,0.5763929538140398,0.4236230026145016,71.40706525518428,77.18395937984016
133,765.34,0.5739927262398706,0.41958856078641593,71.349234582207,77.18395937984016
134,765.396,0.5714985552353645,0.4154054525215344,71.28924967108321,77.18395937984016
135,765.45,0.5690835688599611,0.411367619326079,71.23135196865583,77.18395937984016
136,765.502,0.566868776516342,0.407417833748439,71.17561331143027,77.18395937984016
137,765.56,0.5645032341695619,0.4029402017335597,71.11335868912884,77.18395937984016
138,765.624,0.5619713947482279,0.39795330308533744,71.04463297098133,77.18395937984016
139,765.682,0.5596604187445864,0.3934428168849431,70.98235300875491,77.18395937984016
140,765.742,0.5574080175815385,0.38870775837683175,70.91792114838672,77.18395937984016
141,765.798,0.5554144554655649,0.3842300355102687,70.85773647140218,77.18395937984016
142,765.854,0.5534087859168954,0.3797724108540404,70.79763754430144,77.18395937984016
143,766.124,0.5440196481438662,0.35812868574519446,70.5077143240378,77.18395937984016
144,766.184,0.5420247804520189,0.3532885549473581,70.44333604451582,77.18395937984016
145,766.24,0.5403043184758534,0.3487259888795428,70.38331323486891,77.18395937984016
146,766.298,0.5386544557415591,0.34394861728338866,70.32112164443187,77.18395937984016
147,766.35,0.5371459123267981,0.33966542648997006,70.265301613096,77.18395937984016
148,766.404,0.5356916349243159,0.3351942910272131,70.20742451302819,77.18395937984016
149,766.456,0.5343822185978437,0.33087226240189865,70.15176483240421,77.18395937984016
150,766.512,0.5330288499547658,0.32620218793326605,70.09183126713147,77.18395937984016
151,766.564,0.5317988031955975,0.32185356230202633,70.0361510041598,77.18395937984016
152,766.618,0.5305602468684489,0.3173253325505951,69.97831959964748,77.18395937984016
153,766.674,0.5292038681770144,0.3126416347927593,69.91829692826903,77.18395937984016
154,766.73,0.5279717271351465,0.30791933510331904,69.85824703540409,77.18395937984016
155,766.784,0.5267142154222781,0.30339028159504405,69.80037831727016,77.18395937984016
156,766.84,0.5255221838209081,0.2986677381330891,69.74039073052985,77.18395937984016
157,766.896,0.524183060260676,0.2939770953787577,69.68035585942609,77.18395937984016
158,766.952,0.5228516748382394,0.2892875998381058,69.62034161044191,77.18395937984016
159,767.012,0.5213849731182,0.28427089013320395,69.55601702588964,77.18395937984016
160,767.076,0.5198282095062052,0.27892693172554095,69.48746220047705,77.18395937984016
161,767.136,0.5184692735820773,0.27388905175494455,69.42319377398636,77.18395937984016
162,767.19,0.5172348785075048,0.269351502166027,69.36531183358481,77.18395937984016
163,767.248,0.5158780017863253,0.26447563744514435,69.30307605235483,77.18395937984016
164,767.3,0.5147943225097813,0.2600820747143494,69.24735744071202,77.18395937984016
165,767.354,0.5136085487457522,0.25553973867144264,69.18952604322816,77.18395937984016
166,767.406,0.5123363948433914,0.25121237227232074,69.13390183290662,77.18395937984016
167,767.46,0.5109833443428122,0.24673871843894038,69.07620334378358,77.18395937984016
168,767.518,0.5096518395639189,0.24191072169594227,69.01430615011655,77.18395937984016
169,767.574,0.5083077289893015,0.23726447571459736,68.95453554944665,77.18395937984016
170,767.632,0.5069664253978478,0.23245190118068332,68.8927167152771,77.18395937984016
171,767.686,0.5056882461269256,0.22796694135006396,68.83508383280298,77.18395937984016
172,767.74,0.5044783487977594,0.22347231107807763,68.77750799440635,77.18395937984016
173,767.794,0.5033064725275322,0.21897826643477414,68.71999810519172,77.18395937984016
174,767.846,0.5020984670655542,0.21466776873655688,68.6645909593956,77.18395937984016
175,767.898,0.501015208535557,0.21033656450967902,68.60926032321159,77.18395937984016
176,767.954,0.49970311550886154,0.2056982896364778,68.54959513152048,77.18395937984016
177,768.01,0.4982750590221576,0.20110611295485295,68.49000155387539,77.18395937984016
178,768.064,0.49699874828093193,0.19663621850467622,68.43246467155397,77.18395937984016
179,768.128,0.49546773648051773,0.19133391409567374,68.3642117891735,77.18395937984016
180,768.182,0.49407263195082846,0.18688561217610136,68.30658913265948,77.18395937984016
181,768.238,0.4925090915593408,0.18230508789344851,68.24679761509108,77.18395937984016
182,768.294,0.4910259330894619,0.17770774618083482,68.1870660238433,77.18395937984016
183,768.348,0.4895612467506858,0.17327593383570244,68.12940731136885,77.18395937984016
184,768.4,0.4881361496794149,0.16900057599624696,68.0738078640826,77.18395937984016
185,768.454,0.48668687768571284,0.1645620116581858,68.0161388861422,77.18395937984016
186,768.506,0.4853472321376904,0.1602683534280928,67.96059589839281,77.18395937984016
187,768.558,0.4839212554918456,0.15600519260300558,67.90506871051016,77.18395937984016
188,768.612,0.48243105511901846,0.1515908545111862,67.84746433776601,77.18395937984016
189,768.666,0.4810721848528489,0.14712374456495003,67.78979511517402,77.18395937984016
190,768.722,0.47979114048758725,0.14246860623577903,67.73007937498205,77.18395937984016
191,768.78,0.478545682140862,0.13762605817359114,67.66823399023582,77.18395937984016
192,768.834,0.47746751308275825,0.13310051527418013,67.61067366958045,77.18395937984016
193,768.892,0.4762532373553049,0.12825831024029927,67.54887953918812,77.18395937984016
194,768.948,0.4749966582062702,0.12359519782320813,67.48915570025964,77.18395937984016
195,769.002,0.473745749746866,0.119109905968471,67.43156813413731,77.18395937984016
196,769.056,0.4725419182721433,0.11461206196430455,67.37398249509715,77.18395937984016
197,769.112,0.4713883771128831,0.1099313831857756,67.31431449598483,77.18395937984016
198,769.164,0.47035365169003207,0.10557572939130042,67.258905413717,77.18395937984016
199,769.328,0.4668781723416188,0.09185530143863954,67.08393351393715,77.18395937984016
200,769.38,0.465912267624019,0.08747619085977706,67.02847643496054,77.18395937984016
201,769.426,0.46512480518226446,0.0835887256142912,66.97942160303525,77.18395937984016
202,769.478,0.46412052624273104,0.07922260521390848,66.92399165174434,77.18395937984016
203,769.53,0.46316146215204945,0.0748369453897961,66.86850302473336,77.18395937984016
204,769.59,0.4620555119948916,0.06977105410731389,66.80444411087204,77.18395937984016
205,769.642,0.46101633740607645,0.06541111998059364,66.7490017869895,77.18395937984016
206,769.69,0.45993297361210167,0.0614240069484405,66.69786019291236,77.18395937984016
207,769.742,0.45889092085601746,0.05708075580502656,66.6425174281086,77.18395937984016
208,769.792,0.45783498489860885,0.052917934052990244,66.58930363167927,77.18395937984016
209,769.842,0.45674791220937816,0.048768921570916494,66.53612566426001,77.18395937984016
210,769.892,0.4556957914051404,0.04460824276985586,66.48293115765438,77.18395937984016
211,769.944,0.4546825756295546,0.040255785781451434,66.42757350645671,77.18395937984016
212,769.998,0.4536688732643469,0.03573604793897375,66.3701423438437,77.18395937984016
213,770.05,0.452752529459017,0.031359100836572826,66.31476546269734,77.18395937984016
214,770.098,0.4519496420857581,0.027298674531093924,66.26357671047569,77.18395937984016
215,770.15,0.45102928127763925,0.022909227109177633,66.20811625549047,77.18395937984016
216,770.2,0.45012183620118557,0.01869818241439873,66.15481893354058,77.18395937984016
217,770.252,0.44911525427495597,0.014343797175939746,66.09945885501405,77.18395937984016
218,770.302,0.44807095306368616,0.02106984686237016,66.04625816747222,77.18395937984016
219,770.356,0.4469002097688356,0.0255501317164663,65.9888353171527,77.18395937984016
220,770.406,0.4458607266747968,0.029715241851130038,65.93563301136903,77.18395937984016
221,770.458,0.4448042375293582,0.03406320974743847,65.88023921709386,77.18395937984016
222,770.514,0.44375428815284534,0.038761061435783596,65.82061586220989,77.18395937984016
223,770.562,0.44282933812035824,0.042783114123424934,65.76950395376743,77.18395937984016
224,770.616,0.4419144931389602,0.04734892408165285,65.7119157369132,77.18395937984016
225,770.666,0.44098041359406104,0.05157148648135583,65.65851003470708,77.18395937984016
226,770.72,0.44005361475169746,0.05614701749037526,65.60084571924993,77.18395937984016
227,770.77,0.4391031070729393,0.060369362881720366,65.54741847256736,77.18395937984016
228,770.822,0.43824238424470724,0.0647826080602136,65.4918844323887,77.18395937984016
229,770.874,0.43748048389031763,0.06921585792838798,65.43633856667718,77.18395937984016
230,770.922,0.4368375342792407,0.07331577206386077,65.38507956078779,77.18395937984016
231,770.972,0.4362910826259784,0.07760044009990742,65.3317075823306,77.18395937984016
232,771.022,0.4356805008397666,0.08188753206849488,65.27826532886701,77.18395937984016
