,t,x,y,energy,sight
0,759.83,0.05142267059781549,0.5885166216395281,49.934519408242814,94.52748826359081
1,759.886,0.05336732685675751,0.5849809826052008,49.873404189269436,94.52748826359081
2,759.944,0.05538143512494746,0.5813190707482189,49.810106283904155,94.52748826359081
3,760.004,0.057464995402385345,0.5775308860685825,49.74462569214697,94.52748826359081
4,760.068,0.05968745969831908,0.5734901557436369,49.674779727605966,94.52748826359081
5,760.126,0.06170156796650903,0.5698282438866551,49.611481822240684,94.52748826359081
6,760.184,0.06371567623469898,0.5661663320296733,49.5481839168754,94.52748826359081
7,760.246,0.06586868852138479,0.5622518745273822,49.480520638726304,94.52748826359081
8,760.304,0.06788279678957473,0.5585899626704004,49.41722273336102,94.52748826359081
9,760.362,0.06989690505776469,0.5549280508134184,49.35392482799574,94.52748826359081
10,760.42,0.07191101332595465,0.5512661389564366,49.29062692263046,94.52748826359081
11,760.478,0.07392512159414459,0.5476042270994548,49.22732901726518,94.52748826359081
12,760.536,0.07593922986233455,0.5439423152424728,49.164031111899895,94.52748826359081
13,760.592,0.07788388612127657,0.5404066762081456,49.10291589292652,94.52748826359081
14,760.656,0.0801063504172103,0.5363659458832001,49.033069928385515,94.52748826359081
15,760.714,0.08212045868540026,0.5327040340262182,48.969772023020234,94.52748826359081
16,760.774,0.08420401896283813,0.5289158493465818,48.90429143126305,94.52748826359081
17,760.832,0.08621812723102809,0.5252539374895999,48.840993525897765,94.52748826359081
18,760.904,0.08871839956395355,0.5207081158740363,48.76241681578914,94.52748826359081
19,761.012,0.09246880806334175,0.5138893834506908,48.6445517506262,94.52748826359081
20,761.068,0.09441346432228377,0.5103537444163635,48.58343653165282,94.52748826359081
21,761.122,0.09628866857197786,0.5069443782046907,48.52450399907135,94.52748826359081
22,761.18,0.09830277684016782,0.5032824663477089,48.46120609370607,94.52748826359081
23,761.234,0.10017798108986191,0.4998731001360362,48.402273561124595,94.52748826359081
24,761.292,0.10212272138182396,0.49618991556694353,48.33906644186706,94.52748826359081
25,761.348,0.10398638972704988,0.4926198119970304,48.27800165511947,94.52748826359081
26,761.402,0.10579838224770051,0.48917208038527127,48.219044461660715,94.52748826359081
27,761.458,0.10757921974351903,0.48555102786925736,48.15792847174253,94.52748826359081
28,761.516,0.10935151850252067,0.48177665527335234,48.09469135367866,94.52748826359081
29,761.576,0.11110319602348391,0.47784774843501754,48.0293494335971,94.52748826359081
30,761.632,0.11284881824923583,0.4742410050649701,47.96841457440348,94.52748826359081
31,761.688,0.11470003111141838,0.47068608044962146,47.90747278151621,94.52748826359081
32,761.748,0.11655816663679988,0.46682967063356634,47.84226517777597,94.52748826359081
33,761.808,0.1183065282259329,0.4629384328663358,47.77715197479566,94.52748826359081
34,761.862,0.11994882209575368,0.4594770571631813,47.718602267491995,94.52748826359081
35,761.918,0.12174133210512599,0.45593344117496376,47.65789642434841,94.52748826359081
36,761.974,0.12345859248078168,0.4523623471385741,47.597245928220495,94.52748826359081
37,762.032,0.1252640608989997,0.448686732237387,47.53448664606214,94.52748826359081
38,762.092,0.12724107947426133,0.4449391670637093,47.46955833856677,94.52748826359081
39,762.152,0.12914795968636233,0.44117105166067344,47.404719266678704,94.52748826359081
40,762.212,0.13114295258463488,0.4374496047749701,47.33988453105971,94.52748826359081
41,762.27,0.1330781235477922,0.4338530510703927,47.277195495846684,94.52748826359081
42,762.33,0.13513277659402562,0.43015639586344595,47.212317071057036,94.52748826359081
43,762.388,0.1370438676966314,0.4265490494224885,47.14963968756956,94.52748826359081
44,762.446,0.13895931609482778,0.4229421966073438,47.0869520277942,94.52748826359081
45,762.502,0.14088590908363588,0.4194948993666153,47.02638734075847,94.52748826359081
46,762.558,0.14273116107334516,0.4159911223218541,46.96575323323353,94.52748826359081
47,762.616,0.14453178617421664,0.4122988389544833,46.90291176025852,94.52748826359081
48,762.676,0.14648981959404586,0.4085099283488606,46.837805130010196,94.52748826359081
49,762.736,0.1485359746819792,0.4047563111725817,46.77263356017049,94.52748826359081
50,762.8,0.15083411929429735,0.4008091992671253,46.703070459028076,94.52748826359081
51,762.858,0.1529292257514275,0.3972396670171018,46.640030454016774,94.52748826359081
52,762.92,0.15523783266898003,0.3934559798925762,46.57259188785824,94.52748826359081
53,762.986,0.15778877743891898,0.38947331966880416,46.500730498139454,94.52748826359081
54,763.054,0.16041865038408265,0.3853809324717919,46.426744904968665,94.52748826359081
55,763.122,0.16310039916560534,0.3813250765974193,46.35277386702106,94.52748826359081
56,763.184,0.16551619176718924,0.3776118616876539,46.285351141701994,94.52748826359081
57,763.24,0.16767555159143366,0.3742422282297791,46.2244470715479,94.52748826359081
58,763.302,0.1701733128249011,0.3705990192961176,46.15710553796482,94.52748826359081
59,763.364,0.17261635933366892,0.36691464187838524,46.08974131633114,94.52748826359081
60,763.426,0.17507956540497405,0.3632528729180091,46.022425763229855,94.52748826359081
61,763.482,0.17726419083731562,0.35990821017221336,45.96156803588885,94.52748826359081
62,763.546,0.1796848700367425,0.35603355555702443,45.89199689618614,94.52748826359081
63,763.604,0.18196295437609508,0.35258107429783253,45.82897370182974,94.52748826359081
64,763.666,0.18441243175772848,0.3489158879497617,45.76168891403354,94.52748826359081
65,763.724,0.18668829331507147,0.34548710060486904,45.69880002746119,94.52748826359081
66,763.786,0.1891493236523342,0.3418536302847377,45.63164237893229,94.52748826359081
67,763.846,0.19144186768874644,0.3382924492031293,45.56672546153783,94.52748826359081
68,763.904,0.19375755269449899,0.3349158314820773,45.50397080332517,94.52748826359081
69,763.962,0.1961262139417236,0.331570038389066,45.44118416505747,94.52748826359081
70,764.024,0.19859632434660002,0.32793516345657686,45.37398645157257,94.52748826359081
71,764.094,0.20147145999553362,0.32389027147853067,45.298112882250976,94.52748826359081
72,764.156,0.19726299296658092,0.322621858400734,45.230910577994706,94.52748826359081
73,764.216,0.19319028293856216,0.32139436187383397,45.165876090004765,94.52748826359081
74,764.278,0.18898181590960947,0.3201259487960373,45.098673785748495,94.52748826359081
75,764.34,0.18477334888065677,0.3188575357182406,45.031471481492225,94.52748826359081
76,764.402,0.18056488185170408,0.3175891226404439,44.964269177235956,94.52748826359081
77,764.464,0.17635641482275138,0.31632070956264724,44.897066872979686,94.52748826359081
78,764.53,0.17187643379193077,0.31497046338305723,44.82552893619076,94.52748826359081
79,764.592,0.16766796676297807,0.31370205030526055,44.75832663193449,94.52748826359081
80,764.654,0.16345949973402535,0.31243363722746387,44.69112432767822,94.52748826359081
81,764.714,0.15938678970600662,0.31120614070056385,44.62608983968828,94.52748826359081
82,764.772,0.15544983667892182,0.3100195607245605,44.56322316796467,94.52748826359081
83,764.832,0.15137712665090308,0.30879206419766053,44.49818867997473,94.52748826359081
84,764.894,0.1471686596219504,0.30752365111986385,44.43098637571846,94.52748826359081
85,764.954,0.14309594959393163,0.30629615459296383,44.36595188772852,94.52748826359081
86,765.17,0.12843419349306417,0.30187716709612383,44.131827730964744,94.52748826359081
87,765.226,0.12463299746691334,0.30073150367101714,44.07112887550747,94.52748826359081
88,765.286,0.1205602874388946,0.2995040071441172,44.00609438751753,94.52748826359081
89,765.34,0.11689484841367773,0.29839926026990715,43.94756334832658,94.52748826359081
90,765.396,0.11306761304320326,0.2973438431334908,43.88686449286931,94.52748826359081
91,765.45,0.10937706465024573,0.2963261194662323,43.82833345367836,94.52748826359081
92,765.502,0.10582320323480514,0.29534608926813144,43.77197023075375,94.52748826359081
93,765.56,0.10185928088681373,0.2942529786625574,43.70910355903015,94.52748826359081
94,765.624,0.09748529760627148,0.2930467876495102,43.63973343850755,94.52748826359081
95,765.682,0.09353932898041452,0.29184289564356974,43.5767793970974,94.52748826359081
96,765.742,0.0894833747447479,0.2905590400891115,43.51174089581521,94.52748826359081
97,765.798,0.08573558311464145,0.2892780969501234,43.45110246625414,94.52748826359081
98,765.854,0.08195514938272756,0.2881105454139171,43.39048982467322,94.52748826359081
99,766.124,0.06383359789923117,0.28197958185895805,43.097904591789394,94.52748826359081
100,766.184,0.05976690021990305,0.2807024095012692,43.03281337652282,94.52748826359081
101,766.24,0.055991698134475666,0.27944405547499274,42.97205496929026,94.52748826359081
102,766.298,0.05209768631223416,0.27806857342354857,42.90907359654763,94.52748826359081
103,766.35,0.04860884649700556,0.276858284940804,42.85267012160894,94.52748826359081
104,766.404,0.04502012971136908,0.27553192622358896,42.794153959978274,94.52748826359081
105,766.456,0.04154131499594379,0.2743314639946858,42.73783168169305,94.52748826359081
106,766.512,0.03774908260519362,0.2731446865021313,42.677110403275684,94.52748826359081
107,766.564,0.03424528360237429,0.27201332934894645,42.620776549878705,94.52748826359081
108,766.618,0.030632062652092878,0.27076343840292305,42.56227755911049,94.52748826359081
109,766.674,0.026848961631934197,0.269547217066624,42.501555008047866,94.52748826359081
110,766.73,0.023080802424662476,0.26829391831324345,42.44084958781765,94.52748826359081
111,766.784,0.019454783237635793,0.26706555179333563,42.38231772066186,94.52748826359081
112,766.84,0.015689661394936685,0.26582274074391093,42.32165186449761,94.52748826359081
113,766.896,0.011903182567347103,0.2646110550936701,42.26091759425512,94.52748826359081
114,766.952,0.023084146313880043,0.2632926948993235,42.20026386407866,94.52748826359081
115,767.012,0.02704436987937033,0.261791720685425,42.13534806082912,94.52748826359081
116,767.076,0.031307905348129494,0.26030447743108687,42.06611721262502,94.52748826359081
117,767.136,0.0353044456337009,0.2589343895696209,42.00126708833776,94.52748826359081
118,767.19,0.038926393984246015,0.25775577659598226,41.942860300458136,94.52748826359081
119,767.248,0.042806919969725146,0.2564581360138093,41.8801225225423,94.52748826359081
120,767.3,0.046287518873806374,0.25531282375846087,41.82390215934207,94.52748826359081
121,767.354,0.0499097816685727,0.25416155746392094,41.76554704152968,94.52748826359081
122,767.406,0.05337628081446803,0.252958507963148,41.70929383359563,94.52748826359081
123,767.46,0.0569802466550269,0.2516836073134892,41.65079789928473,94.52748826359081
124,767.518,0.06087631650826124,0.25036127364355215,41.587915391046344,94.52748826359081
125,767.574,0.06463442539245219,0.2491019347521736,41.52725874121187,94.52748826359081
126,767.632,0.06852677140018348,0.24783697919913097,41.46451461606736,94.52748826359081
127,767.686,0.07216959789558933,0.24669495775683953,41.40605180528121,94.52748826359081
128,767.74,0.07579300257144622,0.24551493405240046,41.347633359893535,94.52748826359081
129,767.794,0.07938748832089461,0.2442378244069275,41.28918988680278,94.52748826359081
130,767.846,0.08285408833348674,0.24302569319854728,41.2329169487821,94.52748826359081
131,767.898,0.08630686767517985,0.24178315685801438,41.17666231300136,94.52748826359081
132,767.954,0.08998013773666433,0.2403468788419906,41.116129905907634,94.52748826359081
133,768.01,0.09365603145124599,0.23894732616235065,41.05566644762421,94.52748826359081
134,768.064,0.09723546461084741,0.23765363210642515,40.99727785753316,94.52748826359081
135,768.128,0.10150346696589732,0.23617913739697935,40.928046760189396,94.52748826359081
136,768.182,0.10509723194919429,0.23495027565272575,40.86970929037491,94.52748826359081
137,768.238,0.10884066311461235,0.23375856237182346,40.80927634691815,94.52748826359081
138,768.294,0.11257195378864052,0.23248994590414734,40.74876332993482,94.52748826359081
139,768.348,0.11613538020178056,0.2311916854627,40.69046106988521,94.52748826359081
140,768.4,0.1195631075950512,0.22996677724210027,40.634395439318325,94.52748826359081
141,768.454,0.12312152503804188,0.22870013108605,40.57619189786421,94.52748826359081
142,768.506,0.12657112668244414,0.22752123342327285,40.52009127309734,94.52748826359081
143,768.558,0.13002326826338892,0.22631075298135955,40.46390916135173,94.52748826359081
144,768.612,0.13359762051043184,0.22505719364230464,40.40563736571521,94.52748826359081
145,768.666,0.13718105802270542,0.22381815243977643,40.347341215638444,94.52748826359081
146,768.722,0.14088810381743094,0.22246487078725558,40.286794409496885,94.52748826359081
147,768.78,0.14471566953193496,0.221014007898729,40.22404653755031,94.52748826359081
148,768.834,0.14826022906518666,0.21958984545118865,40.16556885877177,94.52748826359081
149,768.892,0.15208211480872416,0.21810329748344298,40.102773051562956,94.52748826359081
150,768.948,0.15576476594893132,0.21667345431012683,40.042199653536564,94.52748826359081
151,769.002,0.15927665661410667,0.215201793944306,39.98379998950417,94.52748826359081
152,769.056,0.16281641792149765,0.21382417780500487,39.925460423215064,94.52748826359081
153,769.112,0.16649037957306909,0.2123687845943409,39.864879094094746,94.52748826359081
154,769.164,0.1698726955001096,0.21092708805420543,39.80857831314823,94.52748826359081
155,769.328,0.18050361370645931,0.20639759041907207,39.63127217579499,94.52748826359081
156,769.38,0.1839163201621024,0.2050435206188536,39.575004908711264,94.52748826359081
157,769.426,0.1869770900346513,0.203936274599987,39.525185185880396,94.52748826359081
158,769.478,0.19043497567400983,0.20269952991027784,39.46891230640773,94.52748826359081
159,769.53,0.1939152023624549,0.20151623537620028,39.41261708422016,94.52748826359081
160,769.59,0.19793449568349036,0.20020310096448773,39.347744575459224,94.52748826359081
161,769.642,0.20142694775832037,0.1990940514775415,39.29152342334772,94.52748826359081
162,769.69,0.20464245642441142,0.19802412522341845,39.23958604956857,94.52748826359081
163,769.742,0.2081410723182504,0.19693041971868014,39.1833567837142,94.52748826359081
164,769.792,0.2114764400965577,0.19581923971922238,39.129347821148336,94.52748826359081
165,769.842,0.2148010074449629,0.19469450404330443,39.075376775056704,94.52748826359081
166,769.892,0.218085105019003,0.19347160177711092,39.021439482007956,94.52748826359081
167,769.944,0.22154460925851924,0.19230332674183126,38.96530071740387,94.52748826359081
168,769.998,0.2251133126461405,0.19098590561357295,38.906924526540685,94.52748826359081
169,770.05,0.22854403994568995,0.18967497220490576,38.85064996915451,94.52748826359081
170,770.098,0.23172958236134492,0.18848899742580488,38.798646616735965,94.52748826359081
171,770.15,0.23513837166805623,0.1871287317914329,38.7423879826396,94.52748826359081
172,770.2,0.2384524265584686,0.18591490479084383,38.688290957778776,94.52748826359081
173,770.252,0.24193097863956653,0.1847351164844894,38.632013099411886,94.52748826359081
174,770.302,0.24529312821354093,0.18363441180493983,38.57786240405681,94.52748826359081
175,770.356,0.24895223729926222,0.18253155715980274,38.51937364772499,94.52748826359081
176,770.406,0.2523717852447514,0.18157490747178448,38.46513908907975,94.52748826359081
177,770.458,0.25591781747556064,0.18052585748967306,38.408702665758035,94.52748826359081
178,770.514,0.2596929621018067,0.17928063405132127,38.34797105640081,94.52748826359081
179,770.562,0.2629098509791165,0.17812605192198758,38.29584826796761,94.52748826359081
180,770.616,0.2664894322534462,0.17671887433908642,38.23720244558433,94.52748826359081
181,770.666,0.2697745554965766,0.1753345555167246,38.18287804731992,94.52748826359081
182,770.72,0.2732639289893616,0.17373686861345178,38.1242865467501,94.52748826359081
183,770.77,0.27653208583980665,0.17232655778810713,38.06999677676665,94.52748826359081
184,770.822,0.27989651745689753,0.17075361194163183,38.013457851925416,94.52748826359081
185,770.874,0.28328506764818434,0.1692450732320976,37.95694961796856,94.52748826359081
186,770.922,0.28642323189721275,0.16788693468345445,37.90481636337103,94.52748826359081
187,770.972,0.2897409392515179,0.16655649266224926,37.85043021457896,94.52748826359081
188,771.022,0.29303865632971526,0.1651598736235417,37.796000934677146,94.52748826359081
189,771.072,0.29637263551500276,0.16385368569883052,37.74157517430338,94.52748826359081
190,771.128,0.3001371357106067,0.1625120506911129,37.68070776524558,94.52748826359081
191,771.18,0.30360796337138024,0.16119713360982857,37.62418427444229,94.52748826359081
192,771.244,0.3079356431870755,0.15968804970974948,37.554519769686046,94.52748826359081
193,771.308,0.3122801177232467,0.15824451640358964,37.484888727143655,94.52748826359081
194,771.358,0.31569137285597015,0.1571380453156349,37.43042778676264,94.52748826359081
195,771.408,0.31909550380093765,0.15598138540392728,37.37590889309857,94.52748826359081
196,771.46,0.3226673389105651,0.1548405593407223,37.31914193237078,94.52748826359081
197,771.514,0.32633216619757743,0.15355759468983352,37.260261439568694,94.52748826359081
198,771.572,0.33029382241674005,0.15223606296669706,37.19698273259311,94.52748826359081
199,771.628,0.334131772869228,0.15101806093009912,37.13592232163932,94.52748826359081
200,771.68,0.33768669303784465,0.14982804756563728,37.07916039745126,94.52748826359081
201,771.734,0.34138956936353637,0.14864607770824634,37.020254050058824,94.52748826359081
202,771.788,0.3450497665020301,0.14735291376023327,36.961379855400516,94.52748826359081
203,771.838,0.3484747675650787,0.14623778739063148,36.906818127981275,94.52748826359081
204,771.892,0.35215241088099875,0.14501182532435353,36.84797797917469,94.52748826359081
205,771.944,0.35567986797589357,0.14381068028924734,36.79135979391219,94.52748826359081
206,771.992,0.3588990498986392,0.14260072846483282,36.73910103043007,94.52748826359081
207,772.046,0.36251690192926894,0.14122963261126661,36.68030986867226,94.52748826359081
208,772.096,0.36586111941972155,0.1399268384515222,36.62583097908956,94.52748826359081
209,772.152,0.3696047283761771,0.13849629765742127,36.56489191932622,94.52748826359081
210,772.206,0.37322439539154445,0.13718004805831788,36.50621204962461,94.52748826359081
211,772.318,0.3807297199500014,0.1345154243020066,36.38465998817897,94.52748826359081
212,772.366,0.3839084591447204,0.13330063974913248,36.33263229719405,94.52748826359081
213,772.414,0.38712096721890055,0.13214822055562375,36.28054057367407,94.52748826359081
214,772.462,0.39032711820486554,0.13098553567350996,36.228464830738424,94.52748826359081
215,772.514,0.39378549180911293,0.1296986287288761,36.172078974130116,94.52748826359081
216,772.564,0.39710814962431457,0.1284284915710059,36.11780406285964,94.52748826359081
217,772.618,0.4006687652178713,0.12696236030695657,36.059129991406564,94.52748826359081
218,772.668,0.4039167591844497,0.1255113044864662,36.00485352888387,94.52748826359081
219,772.718,0.4071418829721143,0.12403147490048268,35.950634446969204,94.52748826359081
220,772.77,0.4104942787135978,0.1224671223215295,35.894188588303535,94.52748826359081
221,772.824,0.4139372744350558,0.12075679510051465,35.835554509737335,94.52748826359081
222,772.872,0.4170328432785574,0.11933228310550863,35.78349703299177,94.52748826359081
223,772.922,0.4202084452032883,0.11776286281969048,35.72931747696256,94.52748826359081
224,772.968,0.4231187127946369,0.11627689971706705,35.679415884247426,94.52748826359081
225,773.014,0.4260616059120107,0.11483448481960797,35.62945226061954,94.52748826359081
226,773.062,0.42913668336539856,0.11331416551113713,35.57724906483842,94.52748826359081
227,773.112,0.4322841367368907,0.11164249703102647,35.52293134162891,94.52748826359081
228,773.162,0.4354046323028221,0.10993052338447167,35.46864290175175,94.52748826359081
