,t,x,y,energy
0,953.64,0.6203529095745726,0.37626546663196836,49.74599257728099
1,953.94,0.6221830969272328,0.3906434603736927,49.4917806117057
2,954.22,0.6243984231722275,0.4040030248681804,49.25463124505747
3,954.51,0.6262912242710265,0.4178751000073069,49.009004357634616
4,954.8,0.6283594295600639,0.4316931879822861,48.76363120090699
5,955.08,0.6299455195385503,0.4450712674303118,48.52668422126282
6,955.36,0.631475417233549,0.45846308791263796,48.28967308967182
7,955.65,0.6329744393867495,0.47228770754418814,48.04452149525073
8,955.94,0.6347558092728979,0.4860937495242218,47.79936812876133
9,956.22,0.6370039508833455,0.4994401836199086,47.56228255305348
10,956.51,0.6397129124898117,0.5132631643617461,47.31648304446083
11,956.8,0.642227951724831,0.5270987580873212,47.07073416384171
12,957.08,0.644100904419896,0.5405186839213874,46.83338794602404
13,957.36,0.6454523363045781,0.5539551868915386,46.596160551008936
14,957.65,0.6463453295774996,0.5679131420933119,46.350344923258376
15,957.92,0.6476112173080703,0.5808439728100292,46.12176786296379
16,958.2,0.6485094299312675,0.5942167680161147,45.88508399121321
17,958.48,0.6489472560061523,0.6076624110621023,45.648016760785744
18,958.77,0.6496561105628103,0.6216415302110071,45.4021037840781
19,959.06,0.6499013355258504,0.6356402301347692,45.1561224353702
20,959.35,0.6498540500684094,0.6496466617288207,44.91009904869377
21,959.64,0.6500033231011204,0.6637277978052225,44.66359499234023
22,959.92,0.6506221512942477,0.6773495162593502,44.42537594884328
23,960.22,0.6510726394448237,0.6919479887157333,44.17014628818383
24,960.51,0.6509242628121392,0.7061010705460623,43.92318182741636
25,960.79,0.6503023740492727,0.7197467731277893,43.68480887375819
26,961.08,0.649992757124611,0.7338427367558557,43.43820052894861
27,961.36,0.6502079704911321,0.74746390500924,43.200029475163234
28,961.65,0.6509466960745638,0.7072416330104552,42.953693067251
29,961.98,0.651770762258236,0.6912148104362683,42.67309330240317
30,962.31,0.6531236246201574,0.6752668853577853,42.39286835708039
31,962.64,0.654461519536343,0.6593234240325992,42.112676459904904
32,962.98,0.655775970804544,0.6428620993029359,41.82379088248468
33,963.31,0.6573058477263106,0.6269600198052618,41.54380112787138
34,963.63,0.6592846184741114,0.6116420999852448,41.27274802469357
35,963.98,0.66079297671304,0.5948044760107799,40.97600746365032
36,964.31,0.6616916606694944,0.578933694441502,40.696391044917036
37,964.63,0.6625591025718429,0.5635198746997949,40.42509538828074
38,964.94,0.662784214410159,0.5486030167993686,40.16245448466538
39,965.26,0.663268973020992,0.5332780949389115,39.891788008705745
40,965.58,0.6633060403646707,0.5179171510643104,39.62091842799956
41,965.89,0.6635256401359032,0.5030923526569665,39.35886696478204
42,966.2,0.6640677162219032,0.4882394334519322,39.0966057794686
43,966.51,0.6647729614892757,0.4734340422411726,38.83462392766154
44,966.83,0.6649448094813214,0.4580888227971164,38.563851680292835
45,967.14,0.6657198892214367,0.4432763555504371,38.301812017163854
46,967.44,0.6666530237724028,0.4289785747405709,38.04842224718042
47,967.75,0.6680071143133932,0.414260425851809,37.78683522141065
48,968.07,0.6693459804004689,0.39899163844879854,37.51634451032882
49,968.39,0.6709259561977954,0.3837896604987589,37.24619734137914
50,968.7,0.6723817044279391,0.3689929768657657,36.98407421910344
51,969.01,0.6739862562970529,0.3541857090113455,36.721828349906794
52,969.33,0.6758033237654645,0.3389488636486234,36.45136388830344
53,969.64,0.6772613708669974,0.32421580365442804,36.18964603244118
54,969.96,0.678674020674524,0.3090754634532811,35.91995151616195
55,970.27,0.6797915424593264,0.2943694308611822,35.65851327490337
56,970.58,0.6809168291164345,0.2796580518632267,35.39703874472346
57,970.89,0.6816287074930852,0.2649815860550858,35.135880332712226
58,971.2,0.6817764466565129,0.25026486452403834,34.87452374699756
59,971.53,0.6825060367141126,0.23463929354194515,34.59650693309513
60,971.84,0.6832574960779503,0.21994810078877572,34.33524723928751
61,972.15,0.6842356480003667,0.2052585131366918,34.073949813088426
62,972.51,0.6853641764829578,0.18811037154110438,33.769938802603775
63,972.85,0.6865171577934184,0.17187041440209744,33.48251149722067
64,973.18,0.687814719512467,0.1560548745416392,33.20314874202702
65,973.51,0.6895903933491002,0.1402945415294062,32.92397128318077
66,973.85,0.6920308737896562,0.12417954784464533,32.63682785289278
67,974.18,0.6937875821749633,0.1084514013729037,32.35786329485769
68,974.52,0.6951171984404854,0.09227427336405249,32.07078881325975
69,974.85,0.6964117363645091,0.07663071125469001,31.792525515234168
70,975.19,0.6982769020092421,0.06053762106310684,31.505797024204032
71,975.51,0.7182509724174462,0.05794320028722063,31.2359349149992
72,975.83,0.7382250428256504,0.05534877951133442,30.966072805794365
73,976.17,0.7594474926343673,0.05259220743695533,30.67934431476423
74,976.51,0.7806699424430843,0.049835635362576236,30.392615823734094
75,976.85,0.8018923922518012,0.04707906328819714,30.105887332703958
76,977.25,0.8268599802620564,0.04383603731833937,29.76855969619792
77,977.74,0.857445275574619,0.0398633305052636,39.355333341478016
78,978.13,0.8635961527541692,0.05780921554559437,39.026438895884624
79,978.46,0.8688007411368656,0.07299419519510504,38.74814359576714
80,978.79,0.8744007336819318,0.08806028831564844,38.47009215271432
81,979.11,0.8803505234001966,0.10259949425426296,38.20019784026183
82,979.44,0.8868089662733495,0.11750363125482965,37.92194836087285
83,979.77,0.8934464732039183,0.13239369035642562,37.64351535176545
84,980.09,0.9004317803212554,0.1467345480075756,37.373241760206206
85,980.42,0.9071229945060612,0.16163294205161893,37.09467616236477
86,980.74,0.9140215683249591,0.17588424032214786,36.82508361074155
87,981.15,0.92327868775609,0.19398057539699157,36.47994406200358
88,981.46,0.9303632104994501,0.2076389645528507,36.218981952938385
89,981.78,0.9376833349965027,0.2217121443699515,35.94974326750423
90,982.1,0.944951865003564,0.23581154051322023,35.680437836831494
91,982.41,0.9518344152684437,0.24947760995439944,35.41977686174276
92,982.75,0.959700532871705,0.26438535504942545,35.13382353396236
93,983.08,0.9677306815409454,0.27872769012146764,34.85631630076721
94,983.41,0.9758842640456832,0.29298572450307353,34.57907425156388
95,983.74,0.9842013033893674,0.30710800762107276,34.302315682940076
96,984.06,0.9923612268660339,0.32084899330765315,34.03348609547614
97,984.37,0.977588652620049,0.3303143930357694,33.77305743262046
98,984.69,0.9623395437209677,0.3400851282389862,33.50422784515653
99,984.99,0.9480435041280793,0.3492451924920019,33.25220010690909
100,985.3,0.9332709298820944,0.3587105922201182,32.99177144405341
101,985.61,0.9184983556361094,0.36817599194823447,32.73134278119773
102,985.91,0.9042023160432209,0.3773360562012502,32.4793150429503
103,986.21,0.8899062764503324,0.38649612045426596,42.22728730470286
104,986.52,0.8749273905482142,0.3959028461230498,41.96634502183909
105,986.82,0.8602255362288874,0.4048633271960934,41.71363844695886
106,987.13,0.8448447353538978,0.4139283346111121,41.45257579612324
107,987.44,0.82958494447591,0.4231067658523366,41.19151672394781
108,987.74,0.815044469727066,0.43208414933397077,40.93934126863617
109,988.05,0.7999161455649448,0.4413050608130694,40.67860242151825
110,988.35,0.785161950675553,0.4502172430257536,40.42589494505606
111,988.66,0.7670986641526637,0.4558762522856939,50.16476388604513
112,988.96,0.7496899375883893,0.4616667255440535,49.91157852442834
113,989.25,0.7322103994041503,0.4573347051237623,49.66683267486545
114,989.55,0.714128118523903,0.45285330468897833,49.41364731324866
115,989.84,0.696648580339664,0.4485212842686871,49.16890146368576
116,990.14,0.6785662994594168,0.44403988383390314,48.91571610206898
117,990.44,0.6604840185791695,0.4395584833991191,48.66253074045219
118,990.74,0.6424017376989223,0.4350770829643351,48.409345378835404
119,991.06,0.6231139714266586,0.4302969225005655,58.13928099311083
120,991.46,0.5990804195651372,0.42404855385480145,57.80148616568094
121,991.92,0.5712805461391611,0.41711459390037,57.41280695373906
122,992.28,0.5492654842851636,0.41206478584924866,57.10817363749924
123,992.58,0.531115758580888,0.40758666696523094,56.854687397472226
124,992.9,0.512051220511723,0.4024036090884839,56.58479152274417
125,993.24,0.4915426705776074,0.39735745312510523,56.29784394411462
126,993.56,0.4721665844225777,0.3925979211491882,56.02741811257983
127,993.89,0.45203340917653007,0.3878999061041152,55.74825763071397
128,994.21,0.43262783387558507,0.38311559474232937,55.47764786361201
129,994.53,0.41317670177352084,0.3786702593037305,55.20748461625883
130,994.83,0.3947841291859551,0.3747544543938315,54.953937721797615
131,995.13,0.3763588014217062,0.37081158398274394,54.700192192613834
132,995.43,0.3579367074642301,0.36704320771348287,54.44676175754164
133,995.74,0.3389485554449442,0.3628800144761667,54.18463699437075
134,996.04,0.3208170252514782,0.35851955320462703,53.93146644446638
135,996.33,0.3033396006783262,0.35430444931341953,53.6869621641546
136,996.63,0.2851961952553469,0.35023542435619276,53.43428915863215
137,996.93,0.2671374471793174,0.34611713285952783,53.18191417563004
138,997.25,0.24789981936662062,0.3414589831358198,52.912321020749474
139,997.55,0.22983276999576846,0.3370302253767089,52.659310304547
140,997.86,0.21121898642120213,0.33208452408598743,52.39735618912698
141,998.16,0.1933180823915545,0.3272725282290299,52.14430508572537
142,998.46,0.17546943853429606,0.3224495779450237,51.89146634254974
143,998.76,0.15760734147025537,0.3174460788481284,51.63816897864857
144,999.06,0.13951194845131384,0.3128127903909162,51.38461441279848
145,999.4,0.1189720155808947,0.3078533867517804,51.09769518114887
146,999.71,0.10039338452085775,0.30311561330001957,50.8363368692807
147,1000.02,0.08196055863292732,0.29794954084242514,50.57471663679769
148,1000.32,0.06387390564721569,0.2933063686932371,50.32118130667828
149,1000.62,0.04574043052497133,0.2890052531497507,50.06811711140669
150,1000.92,0.02748233185606797,0.28482794259880045,49.81471670920426
151,1001.58,-0.012859240330111583,0.27554612269799195,49.25626653310674
152,1002.01,0.08107187762109822,0.27005080112292446,48.89220455337367
153,1002.34,0.10142150879075165,0.265564641582366,48.612442172615324
154,1002.62,0.118803194452043,0.26199727823510705,48.374953154654406
155,1002.91,0.11359428026446634,0.27543933715597346,48.12898238605202
156,1003.23,0.10784651288507142,0.29027195389623983,47.85756636552526
157,1003.54,0.10240811103652923,0.304672235056483,47.59461202931242
158,1003.85,0.09694203053608083,0.31900815792338777,47.3320174868634
159,1004.15,0.09120038287097249,0.3328019897334286,47.077760641528634
160,1004.44,0.08617763468113958,0.34619045542387084,46.83236536483176
161,1004.74,0.08072413138721227,0.35998130448394855,46.57852951970837
162,1005.02,0.07572123706696726,0.37285470163283746,46.34172201966496
163,1005.3,0.07037305234501892,0.38559559974618784,46.10524530317329
164,1005.59,0.0643499331441262,0.3986278939485074,45.860588120003406
165,1005.88,0.05855317583973326,0.4116753944260683,45.61618847037583
166,1006.17,0.053179138611393374,0.4248094322913212,45.371879731752074
167,1006.46,0.04830042563022705,0.43798286549060084,45.12799598972116
168,1006.73,0.04362921752154579,0.45026134837160325,44.900680512576216
169,1007.02,0.038844588758386846,0.46355019313832535,44.65620366843505
170,1007.31,0.033958115449454186,0.4767875201382024,44.41191592265425
171,1007.59,0.029306790203296282,0.48950885407344413,44.17650420050177
172,1007.88,0.023964507210723112,0.5026336095564177,43.93229687745282
173,1008.17,0.01827034284563033,0.5156908734360872,43.68799227159713
174,1008.45,0.028425942686261814,0.5284388850863552,43.451918575801706
175,1008.74,0.0336039179231909,0.5417143354374089,43.207013044918845
176,1009.03,0.03854069807687768,0.554997741014922,42.96237652325321
177,1009.32,0.04399841625688627,0.5681242885703668,42.71799487410402
178,1009.67,0.05103082755978805,0.5837907381818107,42.4234631354584
179,1009.95,0.05655597388227545,0.5963357031045567,42.187919113406465
180,1010.22,0.06200028589472132,0.6083964854572693,41.96082943411689
181,1010.5,0.0677420234405712,0.6208927643136197,41.72524823761743
182,1010.78,0.07338961378276905,0.6334774465748285,41.48927716225349
183,1011.07,0.07886820895308624,0.6466389922978683,41.244651843594355
184,1011.38,0.08528475639563701,0.6605333420466406,40.983378336678776
185,1011.69,0.09132279091662307,0.6744442222991889,40.722583105172255
186,1012.01,0.09715534699043624,0.6888781453451204,40.45349745484116
187,1012.29,0.10272917498075539,0.7014547487495213,40.21768772484
188,1012.58,0.10870495371193477,0.7144633042013908,39.973248357398944
189,1012.87,0.11489589351808996,0.727461734302693,39.72852821080002
190,1013.19,0.1217946600848856,0.7418678004268059,39.45800370921952
191,1013.53,0.1287111911624853,0.7115329072989608,39.170965567676184
192,1013.87,0.1362153536287651,0.6962996883910393,38.88368737266607
193,1014.17,0.14325790369926886,0.6829508748752728,38.630035739348585
194,1014.46,0.1498593636374468,0.6699997813192472,38.38491643116903
195,1014.76,0.15615782699484182,0.6564791759159884,38.131480806387714
196,1015.05,0.16208086250942014,0.6433982226529682,37.886684969031805
197,1015.35,0.16864560157424127,0.6299835890651739,37.6334568620501
198,1015.63,0.17457132689692476,0.6174582402083875,37.39740851301987
199,1015.95,0.18126795420159908,0.6030840555437442,37.12740035537526
200,1016.35,0.18998899923163418,0.5852531187743171,36.790147598149424
201,1016.73,0.1977531136061401,0.5680805787324431,36.469182352674835
202,1017.03,0.20346191717409987,0.5544656409483659,36.2160651913987
203,1017.32,0.20864500919829754,0.54117414287304,35.97105419033799
204,1017.61,0.21361237189275392,0.5278371826666445,35.72604807627873
205,1017.9,0.21841982299684767,0.5145231250056338,35.481386867704444
206,1018.19,0.22350300889634206,0.5012064840941701,35.23635459453025
207,1018.48,0.22854801431018762,0.4878642452439377,34.991214986517804
208,1018.78,0.23320182974441098,0.47402212485945594,34.73807803670129
209,1019.09,0.23838897451689484,0.4597103147704497,34.47599182422029
210,1019.42,0.24435908138934562,0.4445683837497006,34.19698341773202
211,1019.71,0.2500066690070068,0.43131563033501347,33.951557135229145
212,1019.99,0.2558462968590575,0.418622887748227,33.71463408257838
213,1020.26,0.2609926740918502,0.4062018681455449,33.48579289629496
214,1020.54,0.26617996103496155,0.39322136229402027,33.248077122241085
215,1020.82,0.2710445360578195,0.38013411220884447,33.010135435716684
216,1021.1,0.27596808503666104,0.3670616406316005,32.77220833021867
217,1021.38,0.2810529865454797,0.35401383923297775,32.53421906013667
218,1021.67,0.2865850012562731,0.34058768480235907,32.28790040362554
219,1021.95,0.29190704663315375,0.3275804946189075,32.04983346329588
220,1022.23,0.2976422416498015,0.31463100910215275,31.811514796659615
221,1022.5,0.30334038529284013,0.3022322474334894,31.581984312191533
222,1022.78,0.3095776507460934,0.2895246494470971,31.344330665958037
223,1023.06,0.31596878621522373,0.2768179228539335,31.106424327010583
224,1023.35,0.32240248224931817,0.26362828223193724,30.86015715933744
225,1023.65,0.32941070767593267,0.2500554730963077,30.605230645730067
226,1023.96,0.3363402481491698,0.23601869899550804,30.34226845614105
227,1024.26,0.34276364786288865,0.22230223610010041,30.0874515656087
228,1024.55,0.34945185404635726,0.20910853897956164,29.840733123810356
229,1024.84,0.35610166486686023,0.1959728788768552,29.59442735876133
230,1025.13,0.3631102884530459,0.18293437860782974,29.348072951963815
231,1025.41,0.36988261309471504,0.1703169325229858,29.11003439941626
232,1025.7,0.37684943904603097,0.15719330500755696,28.863248872109036
233,1026.0,0.383667117699111,0.1435318891827636,28.60811784505796
234,1026.29,0.3905740215992145,0.13040037555603196,28.36139136854283
235,1026.57,0.3969907842090541,0.11767315972889039,28.12331889403047
236,1026.85,0.40346097444612056,0.10500125956929678,27.885486084425253
237,1027.14,0.4099708926086853,0.0917948452314024,27.63899187762046
238,1027.41,0.4165377418585007,0.07961371407282605,27.409304422665784
239,1027.69,0.4229960334694784,0.06680936242960758,27.17069968328074
240,1027.97,0.4296223351916242,0.0540746604500977,26.932221778712215
241,1028.26,0.4360640194686819,0.04079077840388874,26.685374845159437
242,1028.54,0.44223214375388037,0.027909435561118624,26.446789579261296
243,1028.8,0.4481758685045221,0.015988379578589274,26.22513053137805
244,1029.08,0.4542958401346367,0.003044880349191778,25.986248293148286
245,1029.36,0.46015254698523,0.04117297217797453,25.74763268784666
246,1029.64,0.4658793786838004,0.05412707718162489,25.509298605627066
247,1029.91,0.4718513596221413,0.0665202206291431,25.279364461342603
248,1030.19,0.4777940466943819,0.07944342640664391,25.04088575641458
249,1030.47,0.48342787149328564,0.09240865715782864,24.8026234470521
250,1030.74,0.48854900917493466,0.1049569244885259,24.573039749584318
251,1031.02,0.4938671676450289,0.11789293812759671,24.335413691557644
252,1031.31,0.49958137135750663,0.13123454344335417,24.08934830706925
253,1031.58,0.5052472076664881,0.14356888870255052,23.860258117371174
254,1031.87,0.5118132775855427,0.1566394714166966,23.61448411311979
255,1032.14,0.518176830453152,0.16879136369539116,23.38533175736555
256,1032.41,0.524683576817989,0.18095276254961626,23.15586923282249
257,1032.69,0.5311999434374198,0.19361940458188226,22.91798830843755
258,1033.37,0.5479009857406217,0.22426430064361752,22.339421457684516
259,1033.77,0.5569781805116613,0.24241135634350158,21.999677243264614
260,1034.13,0.565714756287698,0.2585008829408771,21.694363302313633
261,1034.49,0.5738107418089291,0.2748231906538419,21.388777163848275
262,1034.81,0.5805089086390229,0.2895373805331373,21.11670978449908
263,1035.1,0.5864186305236927,0.3029717859563244,20.86978911770958
264,1035.4,0.5926352167993751,0.31688972517225905,20.61407469507651
265,1035.7,0.5985281192711933,0.33087909251013425,20.358406378805245
266,1036.0,0.6049343189454441,0.34478265174821815,20.102485890402246
267,1036.29,0.610762668301256,0.3582925107903802,19.855227508729044
268,1036.57,0.6159562720811351,0.37140430720682566,19.616697886814
269,1036.84,0.6210599181025687,0.3840004223032357,19.386845775694752
270,1037.12,0.626319373354005,0.3970754696445065,19.1484508125661
271,1037.39,0.6309778198782252,0.4098389571347824,18.91816234493899
272,1037.66,0.6354593433586085,0.4225971757638268,18.68812673129989
273,1037.93,0.6398955280876352,0.43542241114375413,18.457731201167405
274,1038.2,0.6440010025122601,0.4483619638414794,18.22700871161276
275,1038.47,0.6479608944833312,0.46132090682465154,17.99632431405197
276,1038.74,0.6515066472638434,0.47432196053455183,17.765797782333927
277,1039.02,0.6548721351003756,0.48786909671918927,17.526614547054475
278,1039.3,0.6578094694294393,0.5014384908674597,17.287643903906382
279,1039.58,0.6606648704597942,0.514993546828398,17.048826069130964
280,1039.86,0.6637212019629255,0.5284796149427369,16.810287878859967
281,1040.14,0.6663555161090255,0.5419598298933429,16.572103330772002
282,1040.43,0.672187843104841,0.5553755302689595,16.325412191680893
283,1040.71,0.6778190553766629,0.5683286202867962,16.08722764359293
284,1041.0,0.6836513823724784,0.5817443206624129,15.840536504501822
285,1041.29,0.6894837093682938,0.5951600210380295,15.593845365410715
286,1041.58,0.6953160363641093,0.608575721413646,15.347154226319608
287,1041.86,0.700947248635931,0.6215288114314828,15.108969678231643
288,1042.15,0.7067795756317465,0.6349445118070994,24.862278539140537
289,1042.44,0.7130415483197594,0.6482601086967525,24.615531403100533
290,1042.73,0.7193978775078177,0.6615061357171788,24.36905167737391
291,1043.03,0.725994783515847,0.6752376931261285,24.11386461678015
292,1043.33,0.7329469786387829,0.6888789036953116,23.858626104000354
293,1043.66,0.7409750832229792,0.7038599177389218,23.577341657708974
