,t,x,y,energy,sight
0,0.0,0.22157131382252895,0.19449243380176054,99.99998336881912,25
1,0.746,0.26020572853434093,0.1954368445201426,99.62831591736935,25
2,0.78,0.26196516857338237,0.19550568525355017,99.61138021855844,25
3,0.814,0.2637190603466658,0.19558269138704265,99.59447783048526,25
4,0.85,0.26557267906217435,0.19563321759093505,99.57661026432278,25
5,0.884,0.26732208363648674,0.19567492986916332,99.55974422619255,25
6,0.918,0.26907471245592296,0.19567047615475414,99.5428606988652,25
7,0.954,0.270921413308204,0.19570428423028446,99.52503983298767,25
8,0.988,0.2726727515937973,0.19578158435790002,99.50815368867413,25
9,1.024,0.2745311439441779,0.19588907377455783,99.4902400992417,25
10,1.058,0.27627923121571263,0.1960004172917286,99.47336300271098,25
11,1.092,0.2780307163257396,0.1961014541206827,99.45646819579545,25
12,1.128,0.27987992684306473,0.19626076776072088,99.43858940895126,25
13,1.162,0.28162035678949715,0.19641231834588793,99.42174184158065,25
14,1.198,0.28345977704300584,0.1966223014196325,99.4038930927952,25
15,1.232,0.2851817908588591,0.19687327284968528,99.38708910530444,25
16,1.27,0.287109188035028,0.19712598811520957,99.36831484873004,25
17,1.304,0.28884233701824286,0.19733183305184526,99.35147806873033,25
18,1.34,0.29068076844997764,0.19753430843419648,99.3336409639433,25
19,1.374,0.29241620760556597,0.1977137396104724,99.31680827868377,25
20,1.412,0.29436713199506553,0.19789219577637848,99.29793690174142,25
21,1.448,0.29621854745815873,0.1980468207223623,99.28004659031559,25
22,1.486,0.2981639421112691,0.19820434645068014,99.26122198049904,25
23,1.528,0.3003177210398632,0.19837975518932333,99.24039215669045,25
24,1.568,0.30235587144590814,0.19860569204166761,99.2206014250318,25
25,1.612,0.3045886795260385,0.1989103455242322,99.19884571524638,25
26,1.652,0.3066255690258397,0.19914174443835714,99.17905910431936,25
27,1.694,0.3087695242536793,0.19940879927780433,99.15823175316073,25
28,1.734,0.3108135843194534,0.1996347730539967,99.13840340332386,25
29,1.774,0.31285516517944806,0.1997984364254487,99.11862870214149,25
30,1.814,0.3148952009797284,0.2000212021698921,99.09882819591624,25
31,1.854,0.3169319282427193,0.20019992087987207,99.0790763879346,25
32,1.904,0.3194690615847267,0.2004520942855003,99.05442539262395,25
33,1.952,0.3219132430655989,0.2006294046593434,99.0307415242618,25
34,1.994,0.3240503525824554,0.2007273044344166,99.01004967972884,25
35,2.036,0.3261909263574141,0.20088151873349433,98.98931450116962,25
36,2.078,0.3283233306723504,0.20101331430073835,98.96864107194133,25
37,2.122,0.3305614987061647,0.2010976715203397,98.94697329256638,25
38,2.162,0.33259728237969427,0.20123615516804555,98.92724750017805,25
39,2.206,0.3348236310331441,0.20142610136197453,98.90561377122431,25
40,2.25,0.33704603790171095,0.20163977485968593,98.8839914454552,25
41,2.29,0.33906267594487494,0.20189235429488236,98.86431745719328,25
42,2.332,0.3411802549700437,0.20215417560837387,98.84366175374028,25
43,2.374,0.3433066287445473,0.20241813730743755,98.82294850671931,25
44,2.414,0.34532857463767513,0.20265760847226838,98.80325094397797,25
45,2.456,0.3474665391131167,0.20287049222104625,98.7825003066591,25
46,2.498,0.3495991805553034,0.2030890604973116,98.76177990729025,25
47,2.544,0.3519319866097134,0.20336178887033696,98.73908159718793,25
48,2.586,0.3540567123716652,0.20363685188530695,98.71836987652695,25
49,2.628,0.3561752819783464,0.20393494353566255,98.69767747204882,25
50,2.668,0.3581923970846287,0.2041620413056525,98.67801970906028,25
51,2.712,0.3604115831233255,0.20439555795483882,98.65640517087499,25
52,2.752,0.36242265916300287,0.20465773639246154,98.63675870403203,25
53,2.794,0.36453983313602534,0.2049206763968178,98.61610469276529,25
54,2.836,0.3666600309134822,0.2051689914564244,98.5954426803806,25
55,2.878,0.3687680838356765,0.20545486638383997,98.57482765004612,25
56,2.92,0.3708738671501797,0.20574301848461118,98.55422504511789,25
57,2.962,0.3729686439534566,0.20605259825387984,98.53367285887828,25
58,3.004,0.37505345001342255,0.20640815103120339,98.51313745034632,25
59,3.046,0.3771194929761971,0.20681260497721485,98.492663791133,25
60,3.088,0.3791972302148679,0.20716600491810783,98.47217529417239,25
61,3.128,0.38116890389003594,0.20755847297452515,98.4526423538652,25
62,3.17,0.38325691050508326,0.2079210818024126,98.43207909916816,25
63,3.212,0.38534521346939893,0.2083282874660119,98.41146224264311,25
64,3.254,0.3874324153616799,0.2087185199646891,98.39087268521459,25
65,3.298,0.3895981196146556,0.20918484032349322,98.36936117837617,25
66,3.342,0.3917587719118315,0.20966137980167315,98.34786733598288,25
67,3.384,0.39383459303297613,0.21007997793788907,98.32731465372132,25
68,3.428,0.3959952110708436,0.21056324164835755,98.30581169419915,25
69,3.47,0.3980534951399478,0.21107417953481583,98.28523887870207,25
70,3.51,0.4000017348972612,0.2115682725906643,98.26570874362878,25
71,3.556,0.40224981811023086,0.21206860888371942,98.24330231348027,25
72,3.598,0.40428575471801337,0.21256412563546814,98.22289194657179,25
73,3.642,0.40643170567716236,0.21303144440289698,98.20150264487502,25
74,3.684,0.40848693124227,0.21347773695318661,98.18104265339828,25
75,3.728,0.41064514169200494,0.21389436391753053,98.15964176138306,25
76,3.774,0.41292070165686995,0.21426695454876493,98.13721758156741,25
77,3.822,0.4152830103420794,0.21468975143798485,98.11385856888748,25
78,3.864,0.4173609672968581,0.21504541006831718,98.09336625444813,25
79,3.904,0.41934702560117565,0.21538908910964763,98.0737999073195,25
80,3.95,0.421634120250835,0.21572530786890792,98.05133851555183,25
81,3.992,0.4237076915909105,0.21606000642753798,98.0308958929848,25
82,4.034,0.42577282236359604,0.21642063022451968,98.0104790525484,25
83,4.076,0.4278371951327412,0.21680310726798252,97.99004221693042,25
84,4.12,0.4300150372092923,0.21714100252745916,97.96860393215388,25
85,4.16,0.43198887512103107,0.21747293159728787,97.94912732852963,25
86,4.202,0.4340614440781991,0.21786212217282058,97.92863104806489,25
87,4.242,0.43603741577442373,0.2181752666490969,97.9091603442632,25
88,4.284,0.4381091816578853,0.21847470754185244,97.88876326426268,25
89,4.326,0.44018138660081385,0.21872311878335432,97.86840619981619,25
90,4.368,0.44225479427815284,0.218912873555067,97.84808093524049,25
91,4.41,0.4443380561978453,0.21907455373995907,97.82770796607845,25
92,4.452,0.4464063462673492,0.21928994188650094,97.80739932670991,25
93,4.494,0.4484773694843847,0.2194902321913796,97.78708293763081,25
94,4.536,0.4505442845859197,0.21971981495621734,97.76677332817951,25
95,4.578,0.45260404003174415,0.21994613333738192,97.746511557549,25
96,4.62,0.454656337810542,0.22017968203725036,97.72629207726254,25
97,4.662,0.45670921695374667,0.22043059920464309,97.70605587428082,25
98,4.704,0.45876301259629343,0.2206553140031517,97.68583313773988,25
99,4.744,0.4607270529941526,0.22087412331258208,97.66651884651984,25
100,4.79,0.46297738434508756,0.22115412648872135,97.64433899908688,25
101,4.83,0.46494497424855563,0.22135252845144468,97.62501590017752,25
102,4.87,0.4669073910765982,0.2215923912280598,97.60569629599642,25
103,4.914,0.4690742970630386,0.22186394492625375,97.58438629021757,25
104,4.956,0.47115019689068793,0.22210051337644318,97.56401454011598,25
105,4.996,0.47313237654476775,0.22232049016736805,97.54458404300095,25
106,5.038,0.4752230374856879,0.2225017810000375,97.52415360139278,25
107,5.078,0.47721741626580066,0.22263844028654584,97.50469298018712,25
108,5.12,0.4793103180941685,0.22273705062784624,97.48428354895071,25
109,5.16,0.4813069056388531,0.2228305188071813,97.46482472768975,25
110,5.202,0.48340334852878974,0.22290190497967596,97.44439971696048,25
111,5.244,0.4855010706729549,0.22292223927389063,97.42397366449833,25
112,5.288,0.4876873822230636,0.22290781037842877,97.40264763252542,25
113,5.33,0.489763834375633,0.22290910137880626,97.38235833618046,25
114,5.372,0.49185009616621456,0.2229172015233422,97.36200616008202,25
115,5.416,0.49403052481841947,0.222985556566637,97.34071122782053,25
116,5.458,0.49610727361662343,0.22303637440180712,97.32041605688403,25
117,5.5,0.4981830202409606,0.2230534091276189,97.30013083114736,25
118,5.548,0.5005491477479549,0.22313277848282378,97.2769790979305,25
119,5.594,0.5028266571847848,0.22316446169374463,97.25473496051728,25
120,5.638,0.5050086351414881,0.22323185839820492,97.23343030827388,25
121,5.682,0.5071811364439835,0.2232773352243173,97.21218992065535,25
122,5.728,0.5094535081491293,0.22325592283425988,97.18997942943452,25
123,5.772,0.5116232138078709,0.22317232995314043,97.16874967776361,25
124,5.818,0.513894753566363,0.22303605828217288,97.1465190199531,25
125,5.86,0.515976252896038,0.22287079015562963,97.12615549963037,25
126,5.906,0.5182408765059584,0.22265344143326402,97.10392864228473,25
127,5.952,0.5205164216516776,0.22245316271192475,97.08164218835414,25
128,5.996,0.5226873739450963,0.22220861862824837,97.06032688988678,25
129,6.04,0.5248549932258217,0.22198243201461318,97.03904547089284,25
130,6.086,0.5271243846133378,0.22178390882385415,97.01679923235805,25
131,6.13,0.5293014054526965,0.22164416157160768,96.99550428907999,25
132,6.178,0.5316766734487767,0.2215259410746314,96.97228375673917,25
133,6.222,0.533843491960333,0.22141533859461004,96.95106473088511,25
134,6.264,0.5359056377454119,0.22129495639730865,96.93084452876404,25
135,6.31,0.538178997023621,0.22123277432208685,96.90862292106041,25
136,6.352,0.54025624057944,0.22117350344488976,96.88832315156027,25
137,6.398,0.5425203485142702,0.22107530029235406,96.86615257026875,25
138,6.442,0.5446988358033863,0.22103366704511784,96.84487437241715,25
139,6.488,0.5469694968052599,0.2210026708531257,96.82267412141498,25
140,6.536,0.549326684492869,0.2210347494806087,96.79958672330801,25
141,6.59,0.5519775264701982,0.22099276132114656,96.77361920655044,25
142,6.636,0.554243310693838,0.22095495229927561,96.75144950205811,25
143,6.682,0.5565011513750477,0.22097194281212432,96.72933224589964,25
144,6.726,0.5586522409372698,0.22096534303070353,96.70823187457188,25
145,6.77,0.5607978274638358,0.2209777037026562,96.68716655959992,25
146,6.814,0.5629335205434056,0.2209571636872929,96.66616415843284,25
147,6.858,0.5650801502937226,0.22098789405196323,96.64509098701076,25
148,6.902,0.5672337866860273,0.22101985647213188,96.6239728629022,25
149,6.948,0.5694882108015255,0.22099084743156122,96.60187668745972,25
150,6.992,0.571646890259879,0.22091739536768853,96.58071981011967,25
151,7.036,0.5737929869363487,0.2208108774054575,96.55963455056558,25
152,7.08,0.5759479217177349,0.22066040574665902,96.53847605338179,25
153,7.124,0.5781005986782237,0.22046011821263606,96.51730608405681,25
154,7.166,0.5801595367773975,0.22024257436911907,96.49705553138281,25
155,7.214,0.5825066311746389,0.21993808905994308,96.47390825316529,25
156,7.26,0.5847709491923706,0.2196926097010095,96.45166503860838,25
157,7.306,0.5870192496344426,0.2193775221562632,96.42946863102235,25
158,7.35,0.5891765314776771,0.21912883915811646,96.40823726159589,25
159,7.394,0.5913346666057226,0.2189141113444788,96.38702366458897,25
160,7.44,0.593600636935833,0.21875894153937878,96.36482082512987,25
161,7.484,0.5957781986181414,0.21863466781884555,96.34352842006524,25
162,7.53,0.5980432374301402,0.21849638030948215,96.32133851293753,25
163,7.578,0.6003912071650184,0.21828563809002924,96.29825109945638,25
164,7.626,0.6027371370179055,0.21805196512940972,96.27516285014052,25
165,7.674,0.6050792245289284,0.2177565884293225,96.25205475401222,25
166,7.72,0.6073261985455952,0.21744093336908255,96.22986624851296,25
167,7.768,0.609670203300846,0.21712530622988582,96.20672922862866,25
168,7.814,0.6119321887716326,0.21686264134964817,96.18448857854499,25
169,7.858,0.6140864060040292,0.21657117016587005,96.1632426294815,25
170,7.904,0.6163192663946669,0.2162100431192968,96.14109996316539,25
171,7.95,0.6185490557003903,0.2158775470817559,96.11900486027298,25
172,7.994,0.6206805007696571,0.21554744432456924,96.09786765134541,25
173,8.038,0.622818466984234,0.21523337735839693,96.07670448576991,25
174,8.084,0.6250559361344017,0.21487796544608728,96.05453848410446,25
175,8.128,0.6271781784726798,0.21448256210472877,96.0333890695655,25
176,8.172,0.6292980766731799,0.21410364131718987,96.01227335541031,25
177,8.216,0.6314198017142896,0.21373392492337775,95.9911563663375,25
178,8.258,0.6334591831778973,0.21340724761358518,95.9709379339123,25
179,8.302,0.6355865508491815,0.21299903166844042,95.94974105201462,25
180,8.344,0.6376076388354945,0.21255964168041186,95.92950393925535,25
181,8.388,0.6397334758002441,0.2121193368399355,95.90827648575424,25
182,8.432,0.64186586185031,0.21173233870956695,95.88707295137394,25
183,8.474,0.6438893107761511,0.21132723530573005,95.8668658968544,25
184,8.52,0.6461025071122155,0.21086677041382554,95.84473145589979,25
185,8.566,0.648296863802032,0.21036028398669995,95.82265166840827,25
186,8.612,0.6505108089965271,0.20992171193717885,95.80054041474543,25
187,8.656,0.652623120642801,0.20949739758364125,95.77941823252978,25
188,8.7,0.6547378039532314,0.2091272340840359,95.75834514624913,25
189,8.742,0.6567542363862362,0.20880031930759668,95.73827147502702,25
190,8.788,0.658960273013822,0.20843430478946479,95.71629316586727,25
191,8.832,0.661076600848999,0.20811820612565302,95.69526508586799,25
192,8.874,0.6630996109980364,0.20785002489357693,95.67520455138272,25
193,8.918,0.6652235642300084,0.20756946732340958,95.65415983994367,25
194,8.962,0.6673504939425413,0.20729273716622462,95.63309942474723,25
195,9.006,0.6694902853960842,0.20704672215143818,95.61198121217234,25
196,9.05,0.6716349029803371,0.20675355478303764,95.59079467754961,25
197,9.094,0.6737889410388175,0.20647876100038515,95.56956377467583,25
198,9.138,0.6759525130631043,0.2062216234680228,95.54828612989792,25
199,9.182,0.6781184551882842,0.20601611266142744,95.52702850851699,25
200,9.228,0.6803764101653593,0.20575241305591133,95.50481271443141,25
201,9.28,0.6829277231006566,0.20547189597245966,95.4797192442673,25
202,9.324,0.6850860510372013,0.2052057182852382,95.45846796343605,25
203,9.37,0.6873415854869417,0.20499681875635475,95.43630409640636,25
204,9.414,0.6895031697285186,0.20475296470834398,95.41504887081703,25
205,9.458,0.6916744461231165,0.20455644463579126,95.39376256677156,25
206,9.5,0.693750606808143,0.20433876826616387,95.3734023062643,25
207,9.546,0.6960240189287101,0.20408089317874314,95.35109249801641,25
208,9.592,0.6982848508085863,0.20379791822841486,95.32884360920598,25
209,9.636,0.7004473088309877,0.20358271845349765,95.30760218254943,25
210,9.682,0.7026981134415341,0.20335979692663614,95.285459888129,25
211,9.728,0.7049447897302453,0.20320340869364695,95.26337970016503,25
212,9.776,0.7072913771569914,0.20310456835046878,95.24034822416039,25
213,9.82,0.7094452651983176,0.20304518150340017,95.21922476864633,25
214,9.862,0.7115037861887937,0.20294479592582185,95.19903457835991,25
215,9.908,0.7137581968434982,0.20285354872704633,95.17692787001164,25
216,9.952,0.7159129843043515,0.20273534309949573,95.15578316233749,25
217,9.996,0.7180660302422395,0.20258770729326975,95.13463797783591,25
218,10.04,0.7202094364302779,0.20237442572040973,95.11351909929749,25
219,10.084,0.7223355431365095,0.20210715831881454,95.09247159246605,25
220,10.13,0.7245562905820238,0.20184116498620353,95.07049055401461,25
221,10.176,0.7267651465172512,0.2015354578225867,95.04855245932356,25
222,10.222,0.728589002211281,0.20281844333296148,95.02661436463251,25
223,10.27,0.7304921559789642,0.20415721082204819,95.0037224397375,25
224,10.314,0.7322367135993406,0.205384414353711,94.98273817525042,25
225,10.36,0.7340605692933704,0.20666739986408578,94.96080008055937,25
226,10.41,0.7360430211347071,0.20806194933188443,49.97615424490104,25
227,10.456,0.7378719397853576,0.2093471487082553,49.95418149392238,25
228,10.5,0.7395983007325525,0.2105991173807174,49.93319987333962,25
229,10.548,0.7414565525023975,0.21201312689504426,49.91025546557235,25
230,10.592,0.7431801722330407,0.21327240655960894,49.88926049272476,25
231,10.64,0.7450239934370906,0.2146971812084244,49.86634744976393,25
232,10.686,0.7468126420849994,0.2160521790342949,49.84431954375237,25
233,10.732,0.7486489464839947,0.21735791895065976,49.82223231139811,25
234,10.78,0.7505502520958849,0.21874647750153936,49.79916434369424,25
235,10.824,0.7522639812245929,0.22007339966127099,49.777959698810456,25
236,10.872,0.7541668890261671,0.22149724547407837,49.75474923336072,25
237,10.918,0.7559779838042443,0.22286581844311285,49.732554346407795,25
238,10.966,0.7579026990535181,0.22425760941236347,49.709353018104906,25
239,11.014,0.75985220835705,0.22561378181838454,49.68615414303827,25
240,11.06,0.7617211743912786,0.22691758032410886,49.66390316319537,25
241,11.106,0.7635674670510151,0.2282656463016553,49.64160570113217,25
242,11.152,0.7654400856432091,0.22959589878933134,49.619238146597695,25
243,11.196,0.7672465404323577,0.2308581166766222,49.59780087303499,25
244,11.242,0.7691384211375109,0.2321752531092832,49.575380768194925,25
245,11.294,0.7712977522827986,0.23362458628726318,49.55007006797921,25
246,11.34,0.7732190135494931,0.234887226169903,49.52768965748984,25
247,11.388,0.7752215916151572,0.23618787415967452,49.50440718098787,25
248,11.434,0.7771663300310514,0.23739838763564367,49.48207997300661,25
249,11.48,0.7791128173423817,0.23858830056027172,49.45981245902716,25
250,11.528,0.7811770209589002,0.2397971619096717,49.43650283184881,25
251,11.576,0.783210027829114,0.24105672879078038,49.413196758964865,25
252,11.626,0.7853476038434164,0.24232559889959746,49.388954227195846,25
253,11.672,0.787334670737631,0.24346939471441847,49.36661395893028,25
254,11.718,0.7893543914833399,0.24457402310740978,49.34421411447211,25
255,11.766,0.7914564055439256,0.24573729288745114,49.32083857607547,25
256,11.812,0.7934810839619926,0.24685602963673112,49.29836742889588,25
257,11.858,0.795476023335415,0.24801135334702756,49.275946636944795,25
258,11.906,0.7975736474830616,0.24919796014004575,49.25252268641073,25
259,11.952,0.7995509198616582,0.2503738434281982,49.230132809566776,25
260,11.998,0.8015457613821051,0.25152980580477413,49.20771051060767,25
261,12.044,0.8035806935461174,0.2526339353382985,49.18522670229834,25
262,12.088,0.8055423927474521,0.25366812882187495,49.16370062772729,25
263,12.134,0.8076288181489698,0.25469121334817096,49.14116188003106,25
264,12.178,0.8096183343823367,0.2556742323604053,49.11962616767089,25
265,12.226,0.8118279536587091,0.2566889807455169,49.09606464744854,25
266,12.272,0.813928464973819,0.2577153539363233,49.07343567632729,25
267,12.318,0.8160416881752693,0.25874227972707664,49.05073202085042,25
268,12.364,0.8181605881810323,0.25973603481055524,49.028087048172765,25
269,12.41,0.8202601169033892,0.26075137822235056,49.005494594780735,25
270,12.456,0.8223630390730227,0.26178156902814076,48.98284102644385,25
271,12.502,0.8244934039970883,0.2627656385805891,48.960155688816016,25
272,12.55,0.8266719466008959,0.26385623217023935,48.93656352043763,25
273,12.596,0.8287517477292458,0.26490351343785584,48.91399382362824,25
274,12.642,0.8308378539537568,0.26595105601440505,48.891387324217206,25
275,12.686,0.832853391090856,0.26690181272313684,48.86979142428636,25
276,12.732,0.8349740917933008,0.26784669365844593,48.847266042243064,25
277,12.778,0.8370895882846583,0.26878045403189754,48.82479996011208,25
278,12.822,0.8391134775016379,0.2696838104193211,48.80328202575776,25
279,12.868,0.8412652394459597,0.27056589967156086,48.78073186921018,25
280,12.914,0.8434258886051623,0.2714558081236643,48.758110082956556,25
281,12.96,0.8455824282931854,0.27232484549882097,48.735563052409006,25
282,13.006,0.8477203249845848,0.2732599024705133,48.71296238130322,25
283,13.054,0.849956244900052,0.27420359883357953,48.68943014603497,25
284,13.102,0.8521647075159041,0.2751814726031222,48.665972398079454,25
285,13.15,0.8543907724188236,0.2760867169894429,48.642592634326526,25
286,13.194,0.8564094873786781,0.2769400179666232,48.621232736723464,25
