,t,x,y,energy,sight
0,0.0,0.40431370222940616,0.7346761602480034,99.99998331821985,25
1,0.746,0.4432683475987397,0.7341771392656529,99.62631979900294,25
2,0.78,0.4450420548301389,0.734109041909474,99.60929304293019,25
3,0.814,0.4468055216597853,0.7339981472652758,99.59231789521516,25
4,0.85,0.4486681655353955,0.7339143590089253,99.5743849194194,25
5,0.884,0.4504213193299352,0.7338095234126683,99.55747802560367,25
6,0.918,0.45218414205420165,0.7337326451332948,99.54051856985994,25
7,0.954,0.45404620813598806,0.7336293024983512,99.52258300775642,25
8,0.988,0.4558123372595796,0.7335719740839501,99.50560716146367,25
9,1.024,0.4576867848604779,0.733527377585564,99.48760730199794,25
10,1.058,0.4594571922364925,0.7334760440798677,99.470605266147,25
11,1.092,0.4612260066199415,0.7334587531612963,99.45361764655554,25
12,1.128,0.46309302815739767,0.7334186771362265,99.43566595626282,25
13,1.162,0.4648571593375358,0.7333726637102493,99.41870501019204,25
14,1.198,0.4667210927950055,0.7333542458404188,99.40077525370928,25
15,1.232,0.4684848366894787,0.7333649459361594,99.38382041839442,25
16,1.27,0.4704460300482558,0.7333249077988279,99.36493283220146,25
17,1.304,0.4722044235209587,0.7333052533265293,99.34801174432924,25
18,1.34,0.47407071750395763,0.7332685416078696,99.33006515217112,25
19,1.374,0.4758324401573223,0.7332312227003482,99.31312093109929,25
20,1.412,0.47780701907246426,0.7332052571880303,99.29414920013595,25
21,1.448,0.4796834439601221,0.7332376590487997,99.27613829055282,25
22,1.486,0.48166375352418356,0.7332752031697125,99.25712869849184,25
23,1.528,0.4838584565036176,0.7333785801950333,99.23606702608951,25
24,1.568,0.4859425302207884,0.7334659478208825,99.21605057249825,25
25,1.612,0.4882356697597553,0.733596722085968,99.19401730034318,25
26,1.652,0.49030903375165663,0.7337662950826943,99.17403679804286,25
27,1.694,0.4924996020956742,0.733895069425221,99.15299295719909,25
28,1.734,0.494591971873787,0.7340484454755581,99.13289919501149,25
29,1.774,0.49668618677931187,0.7342634128236468,99.112759126755,25
30,1.814,0.49877972956758976,0.7344192638000291,99.09265671076707,25
31,1.854,0.500869966373855,0.734577862058803,99.07257407577384,25
32,1.904,0.5034793510042689,0.7347808191442868,99.04749024198057,25
33,1.952,0.5059919711238998,0.7349988360986185,99.02334905212587,25
34,1.994,0.5081895534175972,0.7351414302580408,99.0022549485976,25
35,2.036,0.5103936053597493,0.7352701605133314,98.98112497699543,25
36,2.078,0.512590518856348,0.7354180055931184,98.9600329282174,25
37,2.122,0.5149025053322093,0.735523876012537,98.93788737591387,25
38,2.162,0.5169946415169693,0.7356368023260477,98.91781154665458,25
39,2.206,0.5192876893130591,0.7357450599673758,98.89578636139993,25
40,2.25,0.5215903143629269,0.7358652820796235,98.87369615532474,25
41,2.29,0.5236726450961533,0.7360387862827891,98.85365639042192,25
42,2.332,0.5258684164309396,0.7361607973984615,98.83258177549969,25
43,2.374,0.528057524491331,0.736287190322275,98.8115481511157,25
44,2.414,0.5301407332824677,0.7363934063574972,98.79153162948244,25
45,2.456,0.5323372769312669,0.7365340391073991,98.77044496695487,25
46,2.498,0.5345322315447234,0.736667881407201,98.74937116538636,25
47,2.544,0.536929206982993,0.7367940107145987,98.72634263236128,25
48,2.586,0.5391296246447371,0.7368642692332139,98.70525278250396,25
49,2.628,0.5413358465414155,0.7369643029173141,98.68411845561029,25
50,2.668,0.5434445115730335,0.7370911593511729,98.66393193357625,25
51,2.712,0.5457715699077405,0.7372015426151222,98.64168868113236,25
52,2.752,0.5478948421442476,0.7372632409190911,98.62142733628468,25
53,2.794,0.5501349521934441,0.7373309033490352,98.60008409349008,25
54,2.836,0.5523727386122969,0.7373998044862468,98.57875547335657,25
55,2.878,0.5546097506520136,0.737535562548452,98.55741225643412,25
56,2.92,0.5568403204692224,0.7377390667594482,98.53607731979736,25
57,2.962,0.5590637291400374,0.7380090695053568,98.51474296617725,25
58,3.004,0.5612904018333794,0.7382149968229886,98.49343144801927,25
59,3.046,0.563523688403373,0.7384060427835689,98.47208621176206,25
60,3.088,0.5657493352659272,0.7386633824772324,98.45074717254889,25
61,3.128,0.5678726407876737,0.738874797752207,98.43042415541316,25
62,3.17,0.570108773124981,0.7391262311171636,98.4090227239224,25
63,3.212,0.5723426329277583,0.7394115697709623,98.3876098617331,25
64,3.254,0.5745629031491969,0.7397212605577625,98.36626256869589,25
65,3.298,0.5768799286410267,0.7400907312298954,98.34391292624969,25
66,3.342,0.5791777683618706,0.7405071656890472,98.3216338661927,25
67,3.384,0.5813817834913764,0.7409023443349753,98.30030322597564,25
68,3.428,0.5836807314849152,0.741358691625187,98.2779695504066,25
69,3.47,0.585858268066235,0.7418407776361561,98.25669586801612,25
70,3.51,0.5879455293288409,0.7422769251437501,98.2363822098155,25
71,3.556,0.5903386576323523,0.742804732836261,98.21303143718868,25
72,3.598,0.5925059651588909,0.7433499292610662,98.19172853102026,25
73,3.642,0.5947696571706012,0.7439186163917194,98.16945739124249,25
74,3.684,0.5969472712063202,0.7444256080947411,98.14814792511841,25
75,3.728,0.5992419125318232,0.7449268727564998,98.12578256656475,25
76,3.774,0.6016261845373341,0.7454749820051149,98.10245854253925,25
77,3.822,0.6041173178124006,0.746025973177052,98.07812996594964,25
78,3.864,0.6062923336932281,0.7465606797991601,98.0567953870864,25
79,3.904,0.6083572893047237,0.7470873213377776,98.03648997206169,25
80,3.95,0.6107294871756002,0.7476899031861297,98.01315908133445,25
81,3.992,0.6129095615409397,0.7481866437101422,97.99184899706373,25
82,4.034,0.6150895856715153,0.7486417085124473,97.9705961105847,25
83,4.076,0.6172582485746365,0.7491462702181404,97.94934596580862,25
84,4.12,0.6195109818687105,0.7497413435493624,97.92710060560663,25
85,4.16,0.6215514848296892,0.7502729087254222,97.90693886872444,25
86,4.202,0.6236909637316979,0.7507999650815835,97.88583683741587,25
87,4.242,0.6257232747679269,0.7513569413711051,97.86568375833862,25
88,4.284,0.627880463259168,0.7518950675447782,97.84445466845527,25
89,4.326,0.6300319118371779,0.7524337005993995,97.8232604314436,25
90,4.368,0.632176340975294,0.7529715669694198,97.80211096417752,25
91,4.41,0.6343120580940502,0.7535652645839476,97.78092407612397,25
92,4.452,0.6364531789304431,0.7541497780314724,97.75971945756221,25
93,4.494,0.6385918034678648,0.754742283183397,97.7385166804795,25
94,4.536,0.640744397372354,0.7553110976595034,97.71726721245281,25
95,4.578,0.6428840885658389,0.7559259216286007,97.69601907179874,25
96,4.62,0.6450458574314339,0.7564914302880449,97.67471819386165,25
97,4.662,0.6472100376984496,0.7570418799750411,97.65342644632383,25
98,4.704,0.6493856548582059,0.7575554723661547,97.63211978037803,25
99,4.744,0.651455786331226,0.758035705415837,97.61185244647488,25
100,4.79,0.6538263879296917,0.7586160550866108,97.58856590136655,25
101,4.83,0.6558799011817902,0.7591626637751431,97.56829912517009,25
102,4.87,0.6579447365338185,0.759674617258377,97.54801738333862,25
103,4.914,0.6602075976474584,0.7602656510113605,97.52571589983448,25
104,4.956,0.6623746348228383,0.7608087833031896,97.50441788901725,25
105,4.996,0.6644440513393024,0.7613270488573838,97.48409792982906,25
106,5.038,0.6666217274165958,0.7618532863417995,97.46275964574299,25
107,5.078,0.6686794721288231,0.7623812289817122,97.4424968772625,25
108,5.12,0.6708525828641109,0.7629211140144931,97.42116618379255,25
109,5.16,0.6729108403415693,0.7634421015232976,97.40091122765044,25
110,5.202,0.6750780509114661,0.7640052258783536,97.37958049905741,25
111,5.244,0.6772459582080674,0.7646054096736843,97.35818399440097,25
112,5.288,0.6795364571239327,0.7651984603302773,97.3357080739312,25
113,5.33,0.6817138279363475,0.7658342361167395,97.31419099679627,25
114,5.372,0.6838745793329296,0.76649787449764,97.2927246430077,25
115,5.416,0.68611369929823,0.7672558009846921,97.2702622311334,25
116,5.458,0.6882489652631119,0.7680031486608395,97.24878366955735,25
117,5.5,0.6903991668916196,0.7687028349678637,97.2273121274933,25
118,5.548,0.6928349455980238,0.7695474878148935,97.20281246532623,25
119,5.594,0.6951860271614442,0.7703328762594739,97.17928151727605,25
120,5.638,0.6974636674706269,0.771015674825057,97.15673036296678,25
121,5.682,0.6997419473150102,0.7716645173119808,97.13423624738834,25
122,5.728,0.7021234906052383,0.7723007109497572,97.11079323568629,25
123,5.772,0.7044013805123255,0.7729230988182709,97.08834702484297,25
124,5.818,0.7067981019309868,0.7735126204713011,97.06488413994259,25
125,5.86,0.7089970732206471,0.7740141001813275,97.04344939908383,25
126,5.906,0.7113929117618037,0.7745729212479243,97.02003779156753,25
127,5.952,0.713784365572978,0.7751313590522304,96.99665406943751,25
128,5.996,0.7160797440737718,0.7756240205684785,96.9742957525109,25
129,6.04,0.7183495182302082,0.7761841254235244,96.95200011135832,25
130,6.086,0.7207085548049539,0.7768327487568466,96.92867531687449,25
131,6.13,0.7229526413581059,0.7774895421249719,96.90637733555448,25
132,6.178,0.7253823617117975,0.7782532729009056,96.88207701713803,25
133,6.222,0.7275977508413589,0.7790218059319425,96.85973627466983,25
134,6.264,0.7297117899531622,0.7797351789291256,96.83845686866407,25
135,6.31,0.7320357406089089,0.7805207452048923,96.81509015143882,25
136,6.352,0.7341721581259677,0.7812122032587195,96.79371877501966,25
137,6.398,0.7365095894655345,0.7819393839131642,96.77038533584721,25
138,6.442,0.7387448942565062,0.7826191859905798,96.7480991063209,25
139,6.488,0.7410905845730007,0.7832818032088557,96.72483254679538,25
140,6.536,0.7435494203670144,0.7839461424673051,96.7005317328342,25
141,6.59,0.7462889630516243,0.7847787846911494,96.67320672425424,25
142,6.636,0.7486351147368814,0.7854714796334001,96.64988390721838,25
143,6.682,0.7509636048556381,0.786232793848874,96.62653859170501,25
144,6.726,0.7531703354819711,0.7870185169522235,96.60421364824762,25
145,6.77,0.7553861146794034,0.7877960275324456,96.58185162108171,25
146,6.814,0.7575999764332908,0.788583791212628,96.55947930159546,25
147,6.858,0.7598274821759398,0.7893267282899139,96.5371179051396,25
148,6.902,0.7620615371723182,0.7900840838167036,96.51468736774763,25
149,6.948,0.764393451531125,0.7909040020641831,96.49120079882894,25
150,6.992,0.7666076122590789,0.7917232318292569,96.46875798155936,25
151,7.036,0.7688124279552768,0.7925685389888054,96.44631230280523,25
152,7.08,0.771033521039579,0.7934010289175144,96.42379829092864,25
153,7.124,0.7732426517368985,0.7942414653125509,96.4013379354502,25
154,7.166,0.7753477062731823,0.795051183715237,96.37990327708057,25
155,7.214,0.7777771628619248,0.7959330691536748,96.35536205488516,25
156,7.26,0.7800884715969546,0.7968200681052613,96.33185113478231,25
157,7.306,0.7823939641922515,0.7977133402860551,96.30836050041212,25
158,7.35,0.7846130608615829,0.7985249096712839,96.28590496124451,25
159,7.394,0.7868642764364034,0.7992751874971117,96.26338475239135,25
160,7.44,0.7892296109840019,0.8000175238788735,96.23985193089679,25
161,7.484,0.7915099706872848,0.8006881766636553,96.217306219568,25
162,7.53,0.7938915812162182,0.8013703248440207,96.19378434261836,25
163,7.578,0.7963628291528088,0.8021627611355132,96.1691751136663,25
164,7.626,0.7988643077163297,0.8028918592593906,96.14449948525132,25
165,7.674,0.801357563756131,0.803639716513134,96.11984027645903,25
166,7.72,0.803737697051977,0.8043672030726446,96.09624510238072,25
167,7.768,0.8062073165802234,0.805200523146515,96.07156399259648,25
168,7.814,0.8085601829093161,0.8060047622645289,96.04798359945983,25
169,7.858,0.8108156638394812,0.8067711472186903,96.02540463844208,25
170,7.904,0.8131762289895661,0.8075986183248958,96.0017290446538,25
171,7.95,0.8155234061344567,0.8084505272184044,95.97808160321765,25
172,7.994,0.8177415878861278,0.809310947046332,95.9555213092877,25
173,8.038,0.8199648311505117,0.8101479392942361,95.93298428240979,25
174,8.084,0.8223086125959659,0.8109478882333674,95.90946778636393,25
175,8.128,0.8245275152271573,0.8117830349391074,95.88696091965096,25
176,8.172,0.8267452736522364,0.812638323159903,95.86441499986879,25
177,8.216,0.8289559904794622,0.8134818394944328,95.84193814036018,25
178,8.258,0.8310416738087707,0.8143351450790263,95.82051582112956,25
179,8.302,0.8332229545759493,0.8152238653595407,95.7981080631627,25
180,8.344,0.8353266316634322,0.8160200548601259,95.77671250828008,25
181,8.388,0.8375449141601852,0.8167925618381314,95.75434592469425,25
182,8.432,0.8397959806598742,0.8175018936448286,95.73190743615355,25
183,8.474,0.8419259662740007,0.8182029449885645,95.71055614187908,25
184,8.52,0.8442698094157087,0.8189616669393806,95.68712252001656,25
185,8.566,0.846617486727002,0.8197414672347836,95.66362354522646,25
186,8.612,0.8489829991864168,0.8204644258359812,95.64012632838019,25
187,8.656,0.8512503798944581,0.821106532542563,95.61771109080505,25
188,8.7,0.8535193529688623,0.8217679504080347,95.59525192592054,25
189,8.742,0.8556762140464708,0.8224169887302268,95.57383657346196,25
190,8.788,0.8580436504737154,0.8231201262045887,95.55036416438821,25
191,8.832,0.8603050395808995,0.8238082470837484,95.52790272684669,25
192,8.874,0.862446372540721,0.8245212692182321,95.50645841116626,25
193,8.918,0.8646709731593546,0.8252951658790042,95.48405071510825,25
194,8.962,0.8669077762078086,0.8260051982644521,95.46169791137315,25
195,9.006,0.8691554794149129,0.8266901283652714,95.43932621360076,25
196,9.05,0.8714020419561346,0.827389869032322,95.41693358336643,25
197,9.094,0.8736545299039526,0.8280429977768524,95.39459053876247,25
198,9.138,0.8759189740346018,0.8286274059529205,95.37228990520448,25
199,9.182,0.8781875802190546,0.8291825267468061,95.35000913501968,25
200,9.228,0.8805461897980408,0.8298308762009798,95.32668744019121,25
201,9.28,0.8832005635205384,0.8306148785416587,95.30030726663566,25
202,9.324,0.8854393136007527,0.831268143060927,95.27804840268035,25
203,9.37,0.8877886963096342,0.8319404613967905,95.25474213279249,25
204,9.414,0.8900322215110459,0.832558321937633,95.23251568595693,25
205,9.458,0.8922811521700371,0.8331328924192702,95.21032687816378,25
206,9.5,0.8944413536003802,0.8336263247934299,95.18914550386509,25
207,9.546,0.8968117633740619,0.8341548260204839,95.16593572066772,25
208,9.592,0.8991958950382889,0.8346246591479772,95.14271715018563,25
209,9.636,0.9014868043535099,0.8350018235772199,95.12052462314445,25
210,9.682,0.9038972841969304,0.8353227941797454,95.09729472076268,25
211,9.728,0.9063004577471825,0.8356617617385975,95.07409550050114,25
212,9.776,0.9088225990081232,0.8359432525693921,95.04985357446384,25
213,9.82,0.9111366714696079,0.8362634510358529,95.02756907071895,25
214,9.862,0.9133452182114865,0.83651381722711,95.00634383873158,25
215,9.908,0.9157521035394535,0.8367992467613652,94.9831651681853,25
216,9.952,0.9180528879655101,0.8370356801399563,94.96102927027562,25
217,9.996,0.9203477837054213,0.837265972986444,94.93893483779316,25
218,10.04,0.9226316544974731,0.8375218550990031,94.91689327758488,25
219,10.084,0.9249230551400774,0.837753815337037,94.89482003082449,25
220,10.13,0.92732052469112,0.8380166757243712,94.87171760985639,25
221,10.176,0.9297103670201764,0.8382758702501624,94.84866625881105,25
222,10.222,0.932107212188756,0.8384649328352038,94.825612134788,25
223,10.27,0.934612386614756,0.838723838152894,94.8014936221903,25
224,10.314,0.9369051354983211,0.8389764783935016,94.7793978810275,25
225,10.36,0.939307942542486,0.8392516058899627,94.75625276860588,25
226,10.41,0.9419212304695342,0.8396043447340171,94.73104272084666,25
227,10.456,0.9443274021088609,0.8398710446808986,94.70788224922545,25
228,10.5,0.9466369369384964,0.8401248346985893,94.68567891770189,25
229,10.548,0.9491682561199184,0.840358487778494,94.66140960591137,25
230,10.592,0.9514727896263722,0.840616628406794,94.63923501719079,25
231,10.64,0.9539965652844733,0.8408325604406741,94.61502384092148,25
232,10.686,0.9564278083783104,0.8410101750015759,94.59175575166391,25
233,10.732,0.9588549328252224,0.8411460572090215,94.56853116407648,25
234,10.78,0.961382540148454,0.8412780935122276,94.54433242098622,25
235,10.824,0.9637116328872593,0.8413788101787173,94.52207896374341,25
236,10.872,0.9662468395752448,0.8415530713387203,94.4978153561973,25
237,10.918,0.9686869511871832,0.8416721449081189,94.47451339234728,25
238,10.966,0.9712212555741632,0.8418240435860367,94.4502647364513,25
239,11.014,0.9737592737828853,0.8419873023672169,94.42598784926238,25
240,11.06,0.9761832118112267,0.84207193987054,94.40279852507848,25
241,11.106,0.9786067110022746,0.8422201209153748,94.37959249768637,25
242,11.152,0.9810244778518348,0.8424029833350524,94.35640792903749,25
243,11.196,0.9833441301418195,0.8425327422423523,94.33420561174512,25
244,11.242,0.9857659179547076,0.8426370397908292,94.31102513624914,25
245,11.294,0.9802574024146533,0.8427232227692816,94.28489900528663,25
246,11.34,0.9778474901554336,0.8427299101763905,94.26180884077777,25
247,11.388,0.9753413624226258,0.8427684209482565,94.2377677296994,25
248,11.434,0.972951237866981,0.842816505383967,94.214801170635,25
249,11.48,0.970571853406506,0.842873975033898,94.19190200223352,25
250,11.528,0.9680983117889239,0.8428800537185823,94.16807128807864,25
251,11.576,0.9656369327206713,0.842896813752397,94.14431809685405,25
252,11.626,0.9630624792180154,0.8429091572974843,94.11950807172018,25
253,11.672,0.960696976736277,0.8429100899474479,94.09670218799369,25
254,11.718,0.9583290737457393,0.8428968357937421,94.07388070478432,25
255,11.766,0.955847183461862,0.842881586339671,94.04999630713971,25
256,11.812,0.9534584925723802,0.842859055866192,94.02704133876142,25
257,11.858,0.9510775113889187,0.8428314619264269,94.00413536921145,25
258,11.906,0.9485856917760754,0.8427846846128283,93.98018491395223,25
259,11.952,0.9461873816493147,0.8427977216353716,93.95716883569769,25
260,11.998,0.9437822246435298,0.842862037196865,93.9341036616812,25
261,12.044,0.9413816093332621,0.8428749911198155,93.91107283334898,25
262,12.088,0.9390924659597129,0.8428900548274443,93.88908866522284,25
263,12.134,0.9366906851275475,0.842970416011482,93.86604199946161,25
264,12.178,0.9344014837240776,0.8430417706315154,93.84405066165756,25
265,12.226,0.9319057854980878,0.8431705904093985,93.82005692954718,25
266,12.272,0.9295042177650013,0.8432982476401764,93.79699853039861,25
267,12.318,0.9270934729497737,0.8434060569834513,93.77388767655269,25
268,12.364,0.9246811799438535,0.8435112691039306,93.75076765738504,25
269,12.41,0.9222753738171118,0.8436463753066263,93.72767957110952,25
270,12.456,0.9198799488169904,0.8438071946586636,93.7046476736066,25
271,12.502,0.9174833533932404,0.843957926544288,93.68161248966608,25
272,12.55,0.914982516844189,0.8440670498504621,93.65759190598982,25
273,12.596,0.912593206318866,0.8441446194699651,93.6346255954629,25
274,12.642,0.9102155696570275,0.8442806021258455,93.61171718753677,25
275,12.686,0.9079482860585154,0.8443824922540857,93.58985859417731,25
276,12.732,0.9055798821646244,0.8444509712470329,93.56702780800423,25
277,12.778,0.9032101712623973,0.8444578622687011,93.54419492743926,25
278,12.822,0.9009515485664741,0.8444617024333303,93.52240638795878,25
279,12.868,0.8985845748188191,0.8444875065899989,93.49959018914036,25
280,12.914,0.8962192287262887,0.8445075222651856,93.4767847654956,25
281,12.96,0.893857323559231,0.8445959306263697,93.45399131999686,25
282,13.006,0.8914924040290224,0.8446633933931758,93.43118301127407,25
283,13.054,0.8890249973851058,0.8447216161143665,93.40738721299469,25
284,13.102,0.8865549841544949,0.8448156124255078,93.3835676859703,25
285,13.15,0.8840891618165652,0.8449821196537842,93.35975048449049,25
286,13.194,0.8818310537144116,0.845126159964992,93.33793588738943,25
287,13.24,0.8794603033386161,0.8452111295187328,93.31508667624371,25
288,13.288,0.8769910939809377,0.8452807763341225,93.29127745131181,25
289,13.336,0.8745149132965009,0.8454260042958233,93.26740266195326,25
290,13.384,0.8720281137205195,0.8455208223308845,93.24347557999445,25
291,13.428,0.8697568929174155,0.8455992303620542,93.22159777422938,25
