,t,x,y,energy
0,0.0,0.09714573855747069,0.4408078393403697,99.99991662537573
1,3.57,0.345541807343112,0.44025572945202535,98.21261025927149
2,3.76,0.3588221026296843,0.440366626410934,98.11719422423138
3,3.94,0.3713974834747044,0.44021045452823937,98.02682412164225
4,4.14,0.3854230932931736,0.4401193939426623,97.9261653387469
5,4.31,0.39731168597106775,0.4400112621782572,97.84076256443021
6,4.5,0.4106224713576988,0.43965762890777843,97.74516405460898
7,4.7,0.42460839979945725,0.4391768576296508,97.64462778789678
8,4.89,0.4379229983178077,0.4390315830571046,97.54904428569259
9,5.08,0.4512748572240862,0.43889896256281524,97.45328307610875
10,5.28,0.46538902521471487,0.43859615591749546,97.3521740239386
11,5.49,0.48020850732837805,0.4380012011138864,97.24593867108763
12,5.68,0.4936897532847429,0.43763714021367567,97.14952008985222
13,5.88,0.5079140864648632,0.43695027304655804,97.0477685886607
14,6.09,0.5228581182072107,0.4364594446739686,96.94096848638007
15,6.31,0.5384967264956868,0.4362731191237046,96.82922702866257
16,6.53,0.554204789721911,0.4360559463492016,96.71714884878098
17,6.77,0.5712959351523762,0.43548594406429275,96.59503028145507
18,7.0,0.5876819554031822,0.43479868068473043,96.47792115923713
19,7.22,0.6032913539484774,0.4343099326871031,96.36626411409094
20,7.44,0.61893552331614,0.433720317131717,96.25441067989253
21,7.66,0.6345581873121373,0.4328615045456683,96.14255406295418
22,7.88,0.6501971718427714,0.4316328447993791,96.03040954006869
23,8.13,0.6569122119918589,0.41921354612980516,95.90297258224426
24,8.39,0.66389585374691,0.40629747551344836,49.8674655638626
25,8.63,0.669947973133144,0.3942643334414504,49.74515652713359
26,8.87,0.6758316402112224,0.3821694419603564,49.622758232104985
27,9.1,0.6810890138637935,0.3705368975467212,49.50581591637082
28,9.34,0.6865818805326241,0.35845522264639074,49.38412163119445
29,9.57,0.691660992209646,0.346891566974444,49.26786868391812
30,9.81,0.6971118238226114,0.3348210317753024,49.1463068229117
31,10.04,0.7024084003546069,0.3232331374343752,49.02957426948857
32,10.29,0.7086714155740345,0.3107744950911863,48.902693331096025
33,10.54,0.7149474516368082,0.29827742807341645,48.77556023252241
34,10.79,0.7216041868627939,0.28593432126978235,48.648680298398624
35,11.04,0.7287683264906571,0.2737609125233146,48.52185222589886
36,11.3,0.7364670240503564,0.2611923628668992,48.38999789599463
37,11.55,0.754198378798855,0.2610365716932723,48.26321488647134
38,11.83,0.7740574961171734,0.2608620855788103,58.121217915805246
39,12.1,0.7931083761729794,0.26032741926778413,57.984709690448945
40,12.38,0.8128055571402534,0.2601959006672748,57.84349280842666
41,12.64,0.8310772251609264,0.26046732127391775,57.71243826759921
42,12.89,0.8486823250751642,0.26099936252071654,57.58619854652867
43,13.14,0.8662649840117197,0.2611955608761669,57.460125776450795
44,13.4,0.8845695773111486,0.2615961903567256,57.32889299093939
45,13.66,0.9029148999864934,0.2618126808063125,57.19749120907889
46,13.94,0.9226146783937549,0.2616432283926272,57.056259387228415
47,14.19,0.9402512586250472,0.2617837040398949,56.929932361652035
48,14.44,0.9579534613423552,0.26185284798073466,56.80329396963923
49,14.68,0.9749143543922638,0.2622552258968785,56.681840963758255
50,14.92,0.9919577102187507,0.2625626609302658,56.56000919781861
51,15.16,1.008918121582958,0.2631670268034936,56.438507388464025
52,15.4,1.02596870449911,0.26337722481677683,56.31665353499253
53,15.64,1.0429712390682055,0.2639526107762843,56.194958331862885
54,15.89,1.060771937274037,0.2644379434372073,56.06779187376979
55,16.13,1.0778837308192866,0.26464875498473056,55.94564418442289
56,16.37,1.094898958044408,0.26522193126691673,55.82388875418645
57,16.61,1.1119702414554016,0.26551958676600745,55.701924453096
58,16.83,1.127592396312799,0.26581841286008945,55.590247058594144
59,17.07,1.1446121389991295,0.26627082793069623,55.468500998877396
60,17.32,1.162296153638387,0.26667085105993676,55.34191246265179
61,17.57,1.1800123086367988,0.26736812655327047,55.215091240275
62,17.83,1.1984222270100175,0.26839627267345817,55.0831456484425
63,18.08,1.2160399700117366,0.26955992456935984,54.956586516142224
64,18.33,1.2336735959419547,0.27067028140527544,54.82998065582181
65,18.58,1.2512759145137873,0.27204526278571306,54.703365835514994
66,18.83,1.2659632784761459,0.26464021462914156,64.57675101520819
67,19.1,1.2816041025765217,0.2563596578188868,64.439854721043
68,19.37,1.297404012366494,0.2482795121258921,64.30306219791308
69,19.63,1.312439904286634,0.24035478288452264,64.17151786300859
70,19.89,1.3277702824673019,0.23268532741849227,64.039730237413
71,20.15,1.281992054952957,0.22498607476480625,63.908206083901035
72,20.4,1.267359047959908,0.21756734008620554,63.78175864914151
73,20.65,1.2527532287114431,0.2102334083899847,63.655722441517675
74,20.9,1.2378832493258067,0.20311581917799568,63.529382544301924
75,21.16,1.22237582658261,0.1956577753196542,63.39762434377207
76,21.41,1.2076383642767174,0.18831092621111947,63.27101659859267
77,21.67,1.1919828279587095,0.1810090338317676,63.13919090483872
78,21.93,1.1766352859463551,0.17343562034381557,63.007674069996995
79,22.18,1.1618275848972128,0.16632908523217282,62.88162416247011
80,22.45,1.14564784054279,0.15876156189673238,62.74509722990346
81,22.74,1.1284309355088853,0.15049648801492363,62.5986435849735
82,23.03,1.1112717448195712,0.14214403809003803,62.4521198388523
83,23.31,1.0946019803043743,0.1342477978828118,62.31081565145405
84,23.62,1.0759170408752976,0.1256989986285568,62.15409032198534
85,24.04,1.050981082260805,0.11359427178232,61.94151417133508
86,24.47,1.0253780701140511,0.10135049886550189,61.72409648248431
87,24.8,1.0054744697496842,0.09235459030086615,61.55755224750922
88,25.08,0.988944000032795,0.08434847158080014,61.41643305507729
89,25.35,0.973110887064443,0.0763894251389171,61.2799425714364
90,25.62,0.9575058460367302,0.0682419266215121,61.14367574030574
91,25.9,0.9409694412641801,0.06006691365730678,61.00194203995319
92,26.18,0.9244391422042237,0.05197674664185485,60.8605306478581
93,26.46,0.9078062350331696,0.04392682693426448,60.718846317480455
94,26.76,0.8897652775536294,0.03569980905732895,60.56749889611268
95,27.05,0.8722678723217429,0.027809878288101175,60.42116704746872
96,27.33,0.8553681955246973,0.020231816285036765,60.27998893388093
97,27.61,0.8384558032289391,0.012693827016309212,60.138889708301136
98,27.88,0.8220409935898289,0.02559511876429759,60.00312919667446
99,28.17,0.8041943448385889,0.03299024464236709,59.85692696121077
100,28.44,0.7877160864876659,0.0400128044265725,59.72095379038903
101,28.7,0.7718915689423859,0.04672765010502696,59.59034834537352
102,28.98,0.7545524847633376,0.05360656301403688,59.4495273455354
103,29.25,0.7380186766330717,0.060464809984802324,59.31383584912026
104,29.53,0.7208211604149505,0.06762911663437332,59.17274169204337
105,29.8,0.7041543133472693,0.07428363544129055,59.03711082154924
106,30.07,0.6877560126831005,0.08130759343283854,58.90146670293602
107,30.34,0.6713215906491761,0.0884252548639718,58.76537357655614
108,30.61,0.663665706612906,0.10144897522549583,58.62928045017625
109,30.9,0.6554427200554308,0.11543741561379943,68.48310635147193
110,31.17,0.6474792865392603,0.12839553239013202,68.34678921817977
111,31.46,0.6388971622068111,0.1423368276993196,68.20018108760996
112,31.73,0.6307597358806445,0.1552598402229557,68.06371442611942
113,32.02,0.6223606895529294,0.169336105028511,67.91668358472332
114,32.3,0.6141410866287936,0.182809832947494,67.77518781393849
115,32.58,0.631681004048186,0.18962837397050059,67.63369204315366
116,32.87,0.6498473470896993,0.19669043431575742,77.48714285198365
117,33.16,0.6678755077142128,0.20409526381192733,77.34014729662911
118,33.44,0.6850907589525473,0.21153986650096224,77.19809543028599
119,33.74,0.7037724155404214,0.2190886116239319,77.04623716976806
120,34.01,0.7204871325146411,0.2259000883121586,76.90992810786976
121,34.28,0.73719252241727,0.23262110847160003,76.77393347231197
122,34.54,0.7535245786207247,0.2387661196521405,76.64289440352867
123,34.8,0.7696623348358075,0.2450928829204717,76.51215519921745
124,35.05,0.7852353302728347,0.251086713038854,76.38646979675462
125,35.32,0.8018278266126292,0.25793259352290876,76.25056985969212
126,35.57,0.8169384612571728,0.2644914823599314,76.125100974383
127,35.83,0.8329091133030261,0.2711057863943825,75.99419720108088
128,36.08,0.8485111089253959,0.2771851675202791,75.86813690576997
129,36.34,0.8649669939860908,0.2832414657886366,75.73681775019514
130,36.59,0.8806325561321231,0.28931737078359715,75.61049680147771
131,36.85,0.8967914917683192,0.2957480277642869,75.4793578006053
132,37.12,0.9136356171176939,0.3022346046480368,75.34347087264726
133,37.39,0.9303475147788721,0.3088834720348926,75.2076660204578
134,37.66,0.9470997854416028,0.31538399081233986,75.07213012173936
135,37.93,0.9638169874214404,0.32208287956678977,74.9361523525406
136,38.2,0.9803366342185315,0.3290989588149532,74.80002684667049
137,38.46,0.9960719757590755,0.33597815512713947,74.66926874275485
138,38.73,1.0120805371810457,0.3434003736659642,74.53393041904661
139,39.0,1.0283487218753202,0.35049643258507,74.3985970016672
140,39.28,1.0449883600347092,0.35800566553975977,74.25871587712433
141,39.56,1.0614430265715529,0.3657185599526284,74.11891018420711
142,39.82,1.0766974720271627,0.37302542984185283,73.98869628341085
143,40.09,1.0928128198303557,0.38036558731852527,73.8531952920085
144,40.36,1.1089198919306693,0.387768955729495,73.717517520305
145,40.63,1.124942691880442,0.39534057554428864,73.58161496127404
146,40.9,1.1408665640427802,0.40310394919600945,73.44545080173286
147,41.17,1.1567091508374807,0.4108901208535435,73.30953363310235
148,41.44,1.172357208326369,0.4189319374653483,73.17348128442467
149,41.71,1.1879257333059428,0.42700972402393444,73.03761282175795
150,41.98,1.2033479520094068,0.4352426234939906,72.9017489695787
151,42.25,1.2188764545565882,0.4434786773053073,72.76545735467741
152,42.51,1.2341373285524422,0.4511675024377336,72.63387800904876
153,42.78,1.2503422119304033,0.45886992443490265,72.49678941057482
154,43.05,1.2663538320558558,0.46672065965668696,72.3599670776715
155,43.37,1.28566516465149,0.4756336873123523,72.19779350364547
156,43.68,1.3043126782584633,0.484193789743661,72.04118374649148
157,43.99,1.3229139049882084,0.49284516569189674,71.88445674223023
158,44.26,1.2856706900392314,0.49998099738218843,71.74838439386387
159,44.54,1.2688856725066096,0.5077266663313258,71.60712054301385
160,44.81,1.2526964609150564,0.5151828942057267,71.47092979971598
161,45.09,1.2358339667745573,0.5228858287759625,71.32949157149356
162,45.35,1.220376136229959,0.5303467086253788,71.19792383940639
163,45.62,1.2044548992675572,0.5381591701281098,71.0615986628078
164,45.89,1.1887311759215697,0.5461216982084922,70.92553140590186
165,46.17,1.172654097018628,0.5545213940484364,70.78481616710057
166,46.45,1.1568904805868827,0.5632883197661759,70.64395082410574
167,46.73,1.1414364393657481,0.5722806811498832,70.50339745093586
168,47.02,1.1252624621951495,0.5814900501325987,70.3575903964018
169,47.29,1.110183668840392,0.5900937452018508,70.22164750009838
170,47.56,1.095178171035582,0.5987591162769503,70.0857440781414
171,47.83,1.0800032017265777,0.6073243697723425,69.94958149885983
172,48.12,1.0640580256091046,0.6168854883614993,69.8032571116776
173,48.41,1.0482184586937726,0.6264588973053511,69.65727881215857
174,48.69,1.0329517976178777,0.6357052690038483,69.51642167025987
175,48.97,1.0175110460359482,0.6447493672167499,69.37571524778595
176,49.25,1.0017094472538384,0.6535310180702656,69.23464732032708
177,49.52,0.9864016102826102,0.6619519615407246,69.09852362624832
178,49.82,0.9694087092902524,0.6714011792090522,68.94698434877309
179,50.11,0.9533423909965094,0.6809286344800682,68.8003388892821
180,50.4,0.9371146013130947,0.6903673990250164,68.65343315620615
181,50.68,0.9212485441158483,0.6993538418405817,68.51133236518703
182,50.98,0.9042362540167032,0.7089867384643245,68.3590143318977
183,51.27,0.8880937175979692,0.7184783139450052,68.21222347495599
184,51.57,0.8714609298818577,0.7283462197194626,68.06042705788917
185,51.9,0.853082512145217,0.7390271742995577,67.89382524229511
186,52.21,0.8357238274321195,0.7199049396176347,67.73780018258442
187,52.5,0.8193948034624736,0.7108922346998374,67.59215060845989
188,52.79,0.803174988611266,0.7017315236541654,67.4463558709216
189,53.1,0.7861961880125502,0.6916709716268852,67.29082526443905
190,53.41,0.7696264647878027,0.681286914820074,67.13551292787605
191,53.75,0.7515160422076043,0.6699058890502158,66.96543424078982
192,54.1,0.732535941627864,0.6585603253421002,66.79059995312336
193,54.41,0.7155472410362107,0.6487900621479888,66.63617301751192
194,54.71,0.6987820323567397,0.63963781940738,66.48663981255487
195,55.0,0.682542248500832,0.630905870829582,66.34239283762912
196,55.3,0.6656149196405122,0.6219988078028726,66.19313888443934
197,55.59,0.6491508969128311,0.6134077732117158,66.0485329992719
198,55.88,0.6326874341751526,0.6049024073286815,65.90424140262853
199,56.17,0.6164903854484678,0.5961401212409774,65.76004761061985
200,56.48,0.5992796277021377,0.5865579478928529,65.60549484302052
201,56.77,0.5835901381495613,0.5772685110046968,65.46121300423182
202,57.08,0.5665265494202828,0.5676721934606889,65.30717229698834
203,57.61,0.5378269284360121,0.5507726309723301,65.0436953190308
204,58.14,0.5087015130191166,0.5343405587929106,64.78042105324502
205,58.45,0.4919786503727855,0.5245544691821034,64.62694146934712
206,58.73,0.475459783672757,0.5318325308691366,74.48831474840708
207,59.0,0.4597258170417447,0.5390335252374132,74.35484055732422
208,59.28,0.44359447312003014,0.5466923488756631,74.2165328017724
209,59.57,0.426707790132034,0.5543763587393966,74.07339160807419
210,59.85,0.4106611897099893,0.5621477653681285,73.93503842657067
211,60.13,0.39431653103893355,0.5695365360395768,73.79676797006137
212,60.41,0.37791160398276136,0.5769050727544951,73.65831623245427
213,60.7,0.3610777334073105,0.5846412639054791,73.51521762286966
214,60.98,0.345187385425106,0.592460012533773,73.37732774915203
215,61.27,0.3291194853720043,0.6008710823695362,73.23494034807892
216,61.56,0.3130787242751823,0.6092946309681283,73.09261395444042
217,61.83,0.29847936631395755,0.6174282214717157,72.96031850594362
218,62.11,0.2832786140149038,0.6257457071174114,72.82333393087139
219,62.4,0.26733983994322114,0.6341739866200695,72.68139068358552
220,62.68,0.2787148074174836,0.6454280661985459,82.54434203103365
221,62.96,0.2898270969313584,0.65673976048657,82.40775283562229
222,63.24,0.3009742887268575,0.6679995776245979,82.27133095088635
223,63.54,0.3124687728534844,0.6802763413345809,82.12532280025785
224,63.84,0.3242413962029635,0.6924979410297947,81.97882765145684
225,64.17,0.336834071134134,0.7060534570575998,81.81809184310377
226,64.47,0.34812547891118795,0.7183663669209648,81.67245001800843
227,64.76,0.35931399673721126,0.7300558215621806,81.53202365376767
228,65.04,0.3702719129775801,0.7411966077856821,81.39675458008614
229,65.33,0.3817586577502823,0.7160650230198979,81.2565189713203
230,65.63,0.3936341608369949,0.7040973224894442,81.1110422393062
231,65.92,0.40550786843822206,0.6927960028910146,80.97062363648753
232,66.2,0.41690789813648876,0.6818783436988034,80.83520713736291
233,66.5,0.429264118484603,0.670208327278139,80.68983433065566
234,66.79,0.44097499258030237,0.6587777712794165,80.54924295342119
235,67.08,0.4528378617181785,0.6474425741123854,80.40868608511764
236,67.39,0.46521217918359326,0.6352301534104312,80.25885182161323
237,67.7,0.47799988271755806,0.6232229689176749,80.10883410466786
238,67.99,0.4903697427292954,0.6122926217558845,79.96874553859872
239,68.28,0.5026821736219445,0.6013798322395851,79.82892092038824
240,68.58,0.5154811034630401,0.5901387707025795,79.68431643843294
241,68.87,0.5280765467834478,0.5795175203236642,79.54501100971068
242,69.16,0.5403859880030905,0.5686291214334247,79.40531477940687
243,69.46,0.5531285645107817,0.557347330989258,79.26068698598264
244,69.75,0.5652732469010665,0.5463566619349634,79.12099720167201
245,70.05,0.5781520455166734,0.5351287346286456,78.97620705589465
246,70.34,0.5903761110422523,0.524184093936909,78.83649967727034
247,70.64,0.6025175284416949,0.5125981597072631,78.69218828699614
248,70.93,0.6143866603711263,0.5014634003765146,78.55261829463785
249,71.25,0.6271744116130262,0.48894739412404126,78.39836889052424
250,71.55,0.6386767579730019,0.4769847399561654,78.25397679238843
251,71.85,0.6502491804603352,0.46503598189453366,78.10945952600426
252,72.16,0.6618934846990084,0.45251306677513714,77.96008167230673
253,72.45,0.67240715182026,0.44067026639833495,77.82069068867361
254,72.75,0.6838478608048799,0.4286201753608414,77.6760160576089
255,73.04,0.6950883166122376,0.4169801540545167,77.53570050467893
256,73.34,0.7066076724020552,0.4049461962272221,77.39089030065578
257,73.65,0.7186954770143816,0.3925621381109408,77.24099779123135
258,73.95,0.7303771954435115,0.38061688905071733,77.09618936614224
259,74.26,0.7420842867770531,0.3681242291505443,76.94679728877603
260,74.6,0.7545616398915894,0.354332562121279,76.78346304472582
261,74.91,0.7659498043104578,0.341705660883637,76.63423270275555
262,75.2,0.7770273724024039,0.3300608955204838,76.4943488626285
263,75.49,0.787972871329185,0.31838191647292524,76.35465269436475
264,75.77,0.7986069065795023,0.3071852115258466,76.22000634163405
265,76.06,0.8093925341301549,0.2954345953860233,76.08037201818682
266,76.35,0.819945849126787,0.2835640567698452,75.9407277753191
267,76.62,0.8297828903764389,0.2724889494544712,75.81055975190857
268,76.92,0.840664960542105,0.26022613500251385,75.66628456727337
269,77.2,0.8505091440229383,0.24861399614343127,75.53155043791662
270,77.49,0.8607657133823853,0.23666969552053593,75.3922921014562
271,77.77,0.8701486428610034,0.22495511794798245,75.25816445968537
272,78.05,0.87962704062974,0.21336491517892248,75.12447948657494
273,78.33,0.8886115422993066,0.20160065982824116,74.99104538350147
274,78.62,0.8980753666198334,0.18951729317264948,74.853023526289
275,78.9,0.9077270286646767,0.1780154736770439,74.71938010540333
276,79.19,0.9172776320581914,0.16587091696932302,74.5808094622001
277,79.49,0.9273509519824076,0.15345431865406367,74.43778908128363
278,79.78,0.9371074866894136,0.14151305945869044,74.29982420401517
279,80.07,0.9472554266690358,0.12972723651189189,74.16170084172268
280,80.39,0.9584849576861771,0.11667554586622333,74.00895525338757
281,80.81,0.972787153953183,0.0993519036205596,73.8085507120872
282,81.23,0.9872465827912009,0.08218498821772147,73.60859639650018
283,81.53,0.9978066700362037,0.0700713339816327,73.46596912432688
284,81.84,1.008206199718088,0.057401509118309525,73.31908238110131
285,82.13,1.0183377569528742,0.0457377411719603,73.18165717728716
286,82.53,1.0323945502873444,0.029654613691029702,72.99191511615126
287,82.96,1.047182427835771,0.01218113543353202,72.78779307998555
288,83.32,1.0597869390694723,0.03370135385146809,72.61630144268811
289,83.65,1.071509894611689,0.04700551841483713,72.45924123275101
290,83.97,1.0833559003882427,0.059649641796130616,72.30700599410264
291,84.28,1.094842834331454,0.07179495276530573,72.16003942530836
292,84.58,1.1056914141601795,0.08368848725662179,72.01781328568238
293,84.92,1.1180937348610571,0.09708319665907736,71.85677742977182
294,85.24,1.129405466574371,0.10992349898922553,71.70494890616165
295,85.54,1.1402603294536928,0.12187632507576562,71.56239235298204
296,85.84,1.1514721447340945,0.13363406903214195,71.41987892090685
297,86.15,1.163208757103309,0.145768787321242,71.27226887311733
298,86.45,1.1746420705642793,0.15750768004268298,71.12923039956178
299,86.75,1.1864481891679892,0.1691260784809264,70.98573979895198
300,87.05,1.1986720595901599,0.18050963901221734,70.842195551915
301,87.35,1.2104960234558193,0.192089185917287,70.6988505372082
302,87.65,1.222765213669054,0.2033965423528976,70.55554847176465
303,87.95,1.2351232868449136,0.21458585944489927,70.41255954923685
304,88.25,1.2478695310154768,0.22552559893957375,70.26957976383834
