,t,x,y,energy,sight
0,0.0,0.21315783618225534,0.4331590939387683,99.99998335362785,25
1,0.746,0.18188400958809786,0.4102225659779859,49.627454191411225,25
2,0.78,0.180429461657776,0.4092063396847128,49.610431490623085,25
3,0.814,0.1789852747455952,0.4081811862825372,49.59343010895629,25
4,0.85,0.17746822497545134,0.40707841218707064,49.57542682285992,25
5,0.884,0.17604340144697075,0.4060164782105278,49.55838718177415,25
6,0.918,0.17463132218775607,0.4049323807443258,49.5413270138122,25
7,0.954,0.1731532106517245,0.4037753651769374,49.52331358348478,25
8,0.988,0.17176216053696744,0.40267737525704117,49.506305000329576,25
9,1.024,0.17029359937808422,0.40150891569240565,49.48829417703935,25
10,1.058,0.16887888421103253,0.40044051443912787,49.47128144524385,25
11,1.092,0.16744795911641136,0.3993950649019299,49.4542730262718,25
12,1.128,0.16595134373305379,0.3982734258685552,49.43630326088005,25
13,1.162,0.16453181394632416,0.39722244046369276,49.41933260132605,25
14,1.198,0.16304523442488217,0.3960795867424832,49.40133190451146,25
15,1.232,0.16162857982120787,0.3950262540084242,49.38436707127228,25
16,1.27,0.16004887256086237,0.39384624692932746,49.36541438591636,25
17,1.304,0.15860562130500785,0.39282068691765804,49.34841637958368,25
18,1.34,0.15706122757444027,0.39175738569599555,49.33041614665495,25
19,1.374,0.15561909585315875,0.39072727188631184,49.313407065001826,25
20,1.412,0.15403093575096338,0.38954875857106014,49.294416696230606,25
21,1.448,0.1525236897236893,0.38843035602009784,49.27640477280561,25
22,1.486,0.15091480070579488,0.3872851064964964,49.257432257170485,25
23,1.528,0.14915326144013258,0.3860051773310254,49.236496649548045,25
24,1.568,0.1474397089656278,0.38482637564868144,49.216518851387896,25
25,1.612,0.14553418437567603,0.38357885784197354,49.1946090707064,25
26,1.652,0.14378702126763812,0.38246180657318823,49.17467049137833,25
27,1.694,0.14196007358065282,0.3812868830225154,49.15376880860576,25
28,1.734,0.14020422781346745,0.38020031293438084,49.1338870656873,25
29,1.774,0.13841500044411445,0.37915309139120984,49.1139521516297,25
30,1.814,0.13663961496044594,0.3780833209783176,49.094019715466516,25
31,1.854,0.13483631794987777,0.37706876393655486,49.07411076040894,25
32,1.904,0.132599897023726,0.37578796283298505,49.04928325992906,25
33,1.952,0.1304681360747017,0.3745553439563674,49.02552345772763,25
34,1.994,0.1285723363142248,0.3735337862131628,49.00474094672065,25
35,2.036,0.12667384625406267,0.3725376421968499,48.984019598350166,25
36,2.078,0.12476978058741836,0.3715502872719444,48.96329262654997,25
37,2.122,0.12279022293878587,0.3704723406654952,48.94153354930167,25
38,2.162,0.12101068226484693,0.3694729563993232,48.9218047132351,25
39,2.206,0.11903380947435105,0.36839607250717354,48.900063979212256,25
40,2.25,0.1170632666004098,0.36728453635680447,48.87825114716443,25
41,2.29,0.1152573266176498,0.36627966929536665,48.858357711759666,25
42,2.332,0.11339738799677665,0.36517982282604994,48.83752862539246,25
43,2.374,0.111545870921538,0.36408210869029883,48.8167528698676,25
44,2.414,0.10979476682554279,0.363035141653675,48.79702878283774,25
45,2.456,0.10794088608552885,0.3619412812188948,48.776252562520476,25
46,2.498,0.10610017779379473,0.3608145575566334,48.755440251571486,25
47,2.544,0.10407616010063223,0.3596107225871978,48.73270180060964,25
48,2.586,0.10221612606413608,0.3585493250705579,48.71199579857173,25
49,2.628,0.1003255603353143,0.357523982114141,48.69123123456098,25
50,2.668,0.09851765420570666,0.3565498815319957,48.67142133536342,25
51,2.712,0.09653540829509934,0.3554870181198574,48.649693012703835,25
52,2.752,0.09475883138211984,0.3544709047288571,48.62992788652785,25
53,2.794,0.09289655355231866,0.35341820041928473,48.609236874234156,25
54,2.836,0.09104249636435548,0.3523337385813693,48.58849014867939,25
55,2.878,0.08921056351945991,0.3511959857366464,48.56768859730066,25
56,2.92,0.08741066873167912,0.35001464212116284,48.54690971688088,25
57,2.962,0.08558952115054241,0.3488560542187099,48.52609563979039,25
58,3.004,0.08373933590898715,0.3477363588497343,48.5052549045167,25
59,3.046,0.08189288557484578,0.34660586991754927,48.48439866941514,25
60,3.088,0.08004793783845815,0.34547320139452864,48.46354334175213,25
61,3.128,0.07825730023173547,0.34443525267532105,48.44363049846533,25
62,3.17,0.07636173207486989,0.34338854913736744,48.42277221958216,25
63,3.212,0.074449988795987,0.3423656478619377,48.40189574232193,25
64,3.254,0.07251305702447008,0.34138184421304907,48.38099201031869,25
65,3.298,0.07050386831111935,0.34033451966468986,48.35915772878555,25
66,3.342,0.06848566471114492,0.33930197805660606,48.337315596943704,25
67,3.384,0.06656731930495591,0.3383048735527518,48.31647876365745,25
68,3.428,0.06456334068278133,0.3372641564080011,48.29469358056936,25
69,3.47,0.06266944661419209,0.3362569706869426,48.2739652332436,25
70,3.51,0.06089728832280639,0.33524200848149227,48.25422831037878,25
71,3.556,0.058845110464091854,0.3341128734320014,48.23157090918447,25
72,3.598,0.05699959161617611,0.33305302786767566,48.210950463469665,25
73,3.642,0.05510754529088967,0.3318909615809463,48.189406481948126,25
74,3.684,0.053329865239108265,0.33074844321584973,48.16888218314777,25
75,3.728,0.0514586501021686,0.32958345914311143,48.14744177188323,25
76,3.774,0.049488300054986875,0.3284101945433197,48.12509853745886,25
77,3.822,0.04745098423159003,0.3271523745548054,48.10177489129605,25
78,3.864,0.04563922033446345,0.3260978091484649,48.08135838365219,25
79,3.904,0.04390318052734191,0.3251212570921094,48.06194384211036,25
80,3.95,0.04187935737803859,0.3240278802633757,48.0395553209111,25
81,3.992,0.040000978862803585,0.3230734430498606,48.019070813666374,25
82,4.034,0.038100542363491176,0.3221684080231477,47.998599235848765,25
83,4.076,0.036188076599726005,0.32131485325817843,47.97819573335248,25
84,4.12,0.034172668030123934,0.3204368659717682,47.95679297362205,25
85,4.16,0.03235755126323886,0.31959827469869534,47.93732969268204,25
86,4.202,0.0304682798063161,0.31870655000213444,47.91695917580028,25
87,4.242,0.028674257437421365,0.3178307817627425,47.897515752206,25
88,4.284,0.02677275877909016,0.3169379575664898,47.87707143717594,25
89,4.326,0.024869942418131393,0.3160439631967504,47.856616305067284,25
90,4.368,0.02297845897122692,0.31514432451192254,47.83621130776242,25
91,4.41,0.021098872415679232,0.3142358764717209,47.815850591577096,25
92,4.452,0.019195117574352005,0.3133828237631993,47.79549929355262,25
93,4.494,0.017298276667415326,0.3125287536562625,47.77518569184315,25
94,4.536,0.015405632377904058,0.3116398474756134,47.75480332917712,25
95,4.578,0.01776186152670391,0.3108041509205216,47.73441650621579,25
96,4.62,0.019697386985728736,0.3100027909033446,47.71400940487362,25
97,4.662,0.021613420002835237,0.3091734301876709,47.693647311863,25
98,4.704,0.023549184660213537,0.30839901992009644,47.6733038167032,25
99,4.744,0.025401033598427557,0.30770797815830925,47.65398701422153,25
100,4.79,0.027545590748649658,0.306941161476593,47.63174416919347,25
101,4.83,0.029426688892232267,0.3063319673494458,47.61242289189607,25
102,4.87,0.031320639816422,0.3057346327869873,47.593046368753214,25
103,4.914,0.033410088918361384,0.3050870746023364,47.57171307506029,25
104,4.956,0.035418126265923645,0.30450703767991444,47.551336222539206,25
105,4.996,0.037318753927237075,0.3039478384199563,47.53198997943963,25
106,5.038,0.03930277203646538,0.30332044114288503,47.51167251102277,25
107,5.078,0.04117790786939308,0.302705750485313,47.492376617155124,25
108,5.12,0.04315082994653068,0.30209516946287135,47.47215905876577,25
109,5.16,0.045027080107146504,0.3015322553286627,47.45295559908748,25
110,5.202,0.04701144758882882,0.3010036600503766,47.4328127861084,25
111,5.244,0.049006005251186466,0.30051321580474605,47.412667373332255,25
112,5.288,0.051106412658609116,0.3000475180419864,47.391564985216846,25
113,5.33,0.053105215507674774,0.29956284255031373,47.37140193675907,25
114,5.372,0.05510233456283944,0.2991098638443568,47.3512957208139,25
115,5.416,0.057180755632210326,0.29860354589310273,47.330271484489764,25
116,5.458,0.059157926900024624,0.29813459206454174,47.31026652714333,25
117,5.5,0.06114028184863664,0.2977149418234061,47.2902982927741,25
118,5.548,0.06341099204083674,0.29726651333255616,47.26748507435582,25
119,5.594,0.06560763928548388,0.29688608681801215,47.24555059348628,25
120,5.638,0.06770414488690606,0.29650388092175695,47.22457847561188,25
121,5.682,0.0697962902067899,0.29611934786118954,47.203631125649615,25
122,5.728,0.07197897642002529,0.2957582044032131,47.1818053449548,25
123,5.772,0.07408144684102899,0.29546747070437773,47.16088815981758,25
124,5.818,0.07628424691011496,0.29511922052887923,47.13894847962048,25
125,5.86,0.07828974611546842,0.2947819705268754,47.118933068789374,25
126,5.906,0.08049052978613085,0.29441270807994857,47.09698449916233,25
127,5.952,0.08268169754065713,0.2940275302190702,47.07507933821053,25
128,5.996,0.08477690372264887,0.29367976428893033,47.05415322736954,25
129,6.04,0.08686440554570636,0.29335000597048644,47.03329421754194,25
130,6.086,0.08904853007628875,0.29296643864239913,47.01143523685266,25
131,6.13,0.09114329924432804,0.29263360165304336,46.99052720580816,25
132,6.178,0.09344097277776518,0.29232365457928766,46.96768890434835,25
133,6.222,0.09554736493818769,0.29197753567361223,46.946693877562325,25
134,6.264,0.09755349752923861,0.291584882949488,46.926611012442066,25
135,6.31,0.0997544309494725,0.291124160641533,46.90455306241842,25
136,6.352,0.10176146901222924,0.29068424919787017,46.88440308867496,25
137,6.398,0.10394813554763851,0.29017094375126934,46.86236134238968,25
138,6.442,0.1060272810768347,0.2896545979612438,46.841317274393305,25
139,6.488,0.10820615559676934,0.28916290762069363,46.819355159989456,25
140,6.536,0.11047556310839075,0.2886726756461213,46.79649593961836,25
141,6.59,0.11301572254226262,0.28809453037071575,46.770823157253346,25
142,6.636,0.11517496794535131,0.28762938148469896,46.74902030567328,25
143,6.682,0.11734023386590713,0.2872093486144187,46.72723760639445,25
144,6.726,0.11940664756230193,0.28678456859144197,46.70640269430936,25
145,6.77,0.12147273001327885,0.28640047915329725,46.68561988410277,25
146,6.814,0.12353602064175777,0.285974594864904,46.66480312280747,25
147,6.858,0.12561078063505615,0.2855964050783957,46.64397253004642,25
148,6.902,0.1276811868394636,0.28516936555611544,46.62310967451109,25
149,6.948,0.12983002719778347,0.2846825865303554,46.601341978159475,25
150,6.992,0.1318746876376942,0.28418796844029637,46.580545376024816,25
151,7.036,0.13392381772926287,0.2836972101754862,46.5597267433266,25
152,7.08,0.13595352801143967,0.28316060391798775,46.538956960778265,25
153,7.124,0.13798850331670534,0.2826309936224167,46.5181659452736,25
154,7.166,0.1399479866668296,0.28215013866081085,46.49825316771126,25
155,7.214,0.1422017641209643,0.2816108771307648,46.47542184492466,25
156,7.26,0.14437038419341774,0.28110900129016686,46.45350918598635,25
157,7.306,0.14653373009643206,0.28063297158433204,46.43166587676713,25
158,7.35,0.14859643026422736,0.2801173636490343,46.41072507852696,25
159,7.394,0.15064635373239438,0.2795851122835874,46.38983721944441,25
160,7.44,0.15277069727060882,0.27898418920548695,46.36804126593022,25
161,7.484,0.15480473876591402,0.2784329385403782,46.34722047034365,25
162,7.53,0.15694568249506957,0.2779012824957937,46.32543560356793,25
163,7.578,0.1591627503939713,0.2773201139958129,46.302766967068024,25
164,7.626,0.16140332924858938,0.27679359492375133,46.280036652856175,25
165,7.674,0.1636583725541925,0.27630505071645517,46.2572695688506,25
166,7.72,0.16579689622556393,0.2757772031269914,46.23550559417366,25
167,7.768,0.16804470364367813,0.2752575755961971,46.21274023663282,25
168,7.814,0.17020336296955565,0.27479107604315606,46.19093922840494,25
169,7.858,0.17227112224878843,0.27434258786685595,46.170064532417754,25
170,7.904,0.17443042608531314,0.2738234764231917,46.148184577006596,25
171,7.95,0.17658551864787217,0.273268986515142,46.12627610118014,25
172,7.994,0.17866174012512412,0.2727507264273468,46.105247232690274,25
173,8.038,0.18071848532622506,0.27217817155896895,46.0842502067709,25
174,8.084,0.1828739890985148,0.2715630702702535,46.06223762052504,25
175,8.128,0.18493113063280991,0.2709211011713602,46.04111239022161,25
176,8.172,0.18699702354340988,0.2703274436551513,46.02002226803191,25
177,8.216,0.18904939272691668,0.26968193929637524,45.99891941963663,25
178,8.258,0.19100324452873,0.2690688106245964,45.97881353277802,25
179,8.302,0.19302050051288175,0.2683657852571702,45.95780819598391,25
180,8.344,0.19494440519046538,0.2677052084155324,45.93778962851207,25
181,8.388,0.19697315597339746,0.267019513332952,45.916750717241015,25
182,8.432,0.19901957315400082,0.2663979574767842,45.8957295284461,25
183,8.474,0.20099300507461995,0.2658468319173731,45.87561628464021,25
184,8.52,0.20317532329539612,0.26528899735984307,45.85353370895142,25
185,8.566,0.20535216156809755,0.26469911313494415,45.83143282407575,25
186,8.612,0.20753069076340064,0.26408765041339105,45.8092847857318,25
187,8.656,0.2096234482779035,0.26350153226000744,45.78804242720137,25
188,8.7,0.21171804775294745,0.2629630121539147,45.766867696126056,25
189,8.742,0.2137036236362345,0.26240033985653854,45.74665962225681,25
190,8.788,0.21589149720404338,0.26180341130582163,45.72447875676276,25
191,8.832,0.21797465789625994,0.2612368021546212,45.70332882630073,25
192,8.874,0.21996934229605986,0.2607254591895873,45.6831500506637,25
193,8.918,0.22205448763642396,0.2601324449556277,45.661942590475746,25
194,8.962,0.224119398884979,0.25948145281848106,45.640752630123565,25
195,9.006,0.22619520885040295,0.25883211645646564,45.6194992971969,25
196,9.05,0.228265632625672,0.2581316326551465,45.59817741406443,25
197,9.094,0.23032207552315037,0.2573705644967134,45.57681043757824,25
198,9.138,0.23237882737312548,0.25663405217779317,45.55549536922533,25
199,9.182,0.23444429948594783,0.25593975728084273,45.53421617235668,25
200,9.228,0.23659736098695422,0.25520786528377964,45.51199553458132,25
201,9.28,0.23900691665682378,0.2543117370150233,45.48687575817105,25
202,9.324,0.2410467613176238,0.25356132584404667,45.46563205293514,25
203,9.37,0.2431542702684589,0.25274057227036273,45.44349058618513,25
204,9.414,0.2451706777843497,0.2519545660014474,45.42230645641561,25
205,9.458,0.24720962933894147,0.2512119068400128,45.40108517311439,25
206,9.5,0.24913991961953946,0.2504658718997853,45.38084074662141,25
207,9.546,0.25126176260037636,0.24964550675653002,45.35861465441376,25
208,9.592,0.2533889556841135,0.2488279358416275,45.33636304543088,25
209,9.636,0.2554221682306508,0.24801287779797493,45.31501053748148,25
210,9.682,0.2575585228077847,0.24716977115525646,45.29264497855341,25
211,9.728,0.25966800964743253,0.24626520335933968,45.27028870483001,25
212,9.776,0.2618580147016857,0.24528704313992372,45.246938148329654,25
213,9.82,0.2638732088559463,0.24440574228777528,45.22552816278143,25
214,9.862,0.26581959989774884,0.24361013884661875,45.20507076767934,25
215,9.908,0.2679643951749592,0.24276483082104106,45.182649786311146,25
216,9.952,0.27004352991345904,0.2420127881274353,45.16116627228467,25
217,9.996,0.27211802299918275,0.2412237017970981,45.1396281410427,25
218,10.04,0.2742196601660444,0.24049453769829157,45.11805777925303,25
219,10.084,0.27629681026698083,0.23971322132303138,45.09652133639008,25
220,10.13,0.2784666680071585,0.23889713266015877,45.07401786937035,25
221,10.176,0.2807825198884455,0.23879171263256546,45.05151440235062,25
222,10.222,0.28309837176973246,0.23868629260497215,45.02901093533089,25
223,10.27,0.28551491286324926,0.23857628909791825,45.005529056701604,25
224,10.314,0.28773007553230634,0.2384754525497855,44.984004001291424,25
225,10.36,0.2900459274135933,0.2383700325221922,44.96150053427169,25
226,10.41,0.29256315771934005,0.2382554455356777,44.93704024403286,25
227,10.456,0.29487900960062696,0.2381500255080844,54.914536777013126,25
228,10.5,0.29709818080947603,0.23805259563125264,54.892987066423224,25
229,10.548,0.2995217876746584,0.23792090933574278,54.86945310286745,25
230,10.592,0.3017363401419699,0.23779331307359347,54.847923127678996,25
231,10.64,0.30414344327438575,0.23764791253825016,54.82448958798248,25
232,10.686,0.3064530973030608,0.23751100992352964,54.80201519101642,25
233,10.732,0.30877772393919484,0.23744135669625033,54.779464236871796,25
234,10.78,0.31119261920309654,0.23738506879734772,54.75600470937282,25
235,10.824,0.31340543650101277,0.23734921620530242,54.73450748659969,25
236,10.872,0.31580744494402346,0.23725760090563713,54.711123454834784,25
237,10.918,0.31810078994116553,0.23718266669906493,54.68877154724384,25
238,10.966,0.32049897213451706,0.23708162893551035,54.66540956542213,25
239,11.014,0.3228883773566102,0.2369615542490351,54.64209807502884,25
240,11.06,0.3251886286297396,0.23687190580959508,54.61969862398376,25
241,11.106,0.32749679082220623,0.23680116371909174,54.59725278283175,25
242,11.152,0.3298134791178583,0.23675444093972436,54.5747562960157,25
243,11.196,0.33203932894561583,0.23666057859986772,54.55316486348669,25
244,11.242,0.33437290753570714,0.23661265276776514,54.53056014449232,25
245,11.294,0.33700587378665936,0.23652472822918855,54.505033100829614,25
246,11.34,0.3393429004551216,0.23646041417035119,54.48240380088401,25
247,11.388,0.3417893960703362,0.23639910526382324,54.45874131325638,25
248,11.434,0.3441224993386762,0.23635842433923795,54.43614051599229,25
249,11.48,0.3464635106644448,0.23633740894172148,54.41349077315216,25
250,11.528,0.3489045410997499,0.2363722489370419,54.389866587217234,25
251,11.576,0.35134909579381945,0.23634049968565618,54.366220117707115,25
252,11.626,0.35389954168525806,0.2363544512269144,54.34156368645208,25
253,11.672,0.35624437908320034,0.236403633239575,54.31888675976876,25
254,11.718,0.35859250704004125,0.2364860774297847,54.296182814102345,25
255,11.766,0.3610335781430669,0.2365628520259792,54.27255223406462,25
256,11.812,0.3633645904497459,0.23668246382421176,54.249947461005625,25
257,11.858,0.36570149963884147,0.2367459569824399,54.22731905625575,25
258,11.906,0.3681313369207768,0.23674141428769566,54.20376807047449,25
259,11.952,0.3704670280447232,0.23668532487689292,54.181148671046685,25
260,11.998,0.3727962707177558,0.23661121458548195,54.15856730760733,25
261,12.044,0.37511867423713263,0.236578985195448,54.136035827232355,25
262,12.088,0.3773429348408452,0.23657670507220238,54.11446721855562,25
263,12.134,0.3796694267231896,0.23657213778845404,54.09191097514974,25
264,12.178,0.3818904764616121,0.23652458505144486,54.07035966592639,25
265,12.226,0.3843178533486863,0.2364545993993638,54.04681799819034,25
266,12.272,0.386638588019874,0.23640113841388444,54.0242946892236,25
267,12.318,0.38896565380864506,0.23634718490500797,54.001730799091625,25
268,12.364,0.3912951675136611,0.23626228772530436,53.97914534717659,25
269,12.41,0.39363247432228504,0.2362294731582817,53.95651844276934,25
270,12.456,0.39597473330559657,0.23615605709835683,53.93385395669815,25
271,12.502,0.3983080312711914,0.23601842821974853,53.91122822801412,25
272,12.55,0.40073562666934803,0.23581158000296173,53.8876353197076,25
273,12.596,0.4030577722979234,0.23558316751966651,53.86503519883258,25
274,12.642,0.4053816613718542,0.2354001017318843,53.84244956588155,25
275,12.686,0.40760705913671424,0.23524266766929292,53.82083809116692,25
276,12.732,0.4099472199588214,0.23512368081167292,53.79817504787294,25
277,12.778,0.4122864646557794,0.23499427449790752,53.7755143247462,25
278,12.822,0.41453216869365106,0.23483631538510363,53.75377297557167,25
279,12.868,0.41688443398184233,0.23463430904349925,53.73099640016507,25
280,12.914,0.4192378902501749,0.234482306896696,53.70823623062463,25
281,12.96,0.42157847236599233,0.23431484115973822,53.685551545074134,25
282,13.006,0.423904585009205,0.23411103417889137,53.662940724487086,25
283,13.054,0.4263348692926529,0.23394483133108013,53.639350575280574,25
284,13.102,0.42875999816962224,0.23383885947772215,53.61581493930891,25
