,t,x,y,energy,sight
0,0.849,0.2959500552364595,0.35377346048695973,49.95202031240805,90.94424881216892
1,0.903,0.2936505328342995,0.3521373001463773,49.90121829025187,90.94424881216892
2,0.957,0.29135101043213946,0.3505011398057948,49.850416268095685,90.94424881216892
3,1.011,0.28905148802997943,0.34886497946521233,49.7996142459395,90.94424881216892
4,1.062,0.2868797168723839,0.34731971692132885,49.751634558347554,90.94424881216892
5,1.116,0.28458019447022387,0.3456835565807464,49.70083253619137,90.94424881216892
6,1.167,0.2824084233126283,0.3441382940368629,49.65285284859942,90.94424881216892
7,1.221,0.28010890091046825,0.34250213369628046,49.60205082644324,90.94424881216892
8,1.269,0.27806488099743715,0.341047768949096,49.55689347341552,90.94424881216892
9,1.32,0.27589310983984155,0.3395025064052125,49.50891378582357,90.94424881216892
10,1.377,0.2734658361931171,0.33777544826793104,49.45528942910316,90.94424881216892
11,1.434,0.2710385625463926,0.3360483901306495,49.40166507238275,90.94424881216892
12,1.491,0.2686112888996681,0.334321331993368,49.348040715662336,90.94424881216892
13,1.542,0.26643951774207253,0.3327760694494845,49.30006102807039,90.94424881216892
14,1.59,0.2643954978290414,0.3313217047023001,49.25490367504267,90.94424881216892
15,1.641,0.2622237266714459,0.3297764421584166,49.20692398745072,90.94424881216892
16,1.695,0.25992420426928586,0.32814028181783417,49.15612196529454,90.94424881216892
17,1.746,0.25775243311169027,0.3265950192739507,49.10814227770259,90.94424881216892
18,1.8,0.25545291070953025,0.3249588589333682,49.05734025554641,90.94424881216892
19,1.851,0.25328113955193465,0.32341359638948475,49.00936056795446,90.94424881216892
20,1.902,0.2511093683943391,0.32186833384560126,48.96138088036251,90.94424881216892
21,1.953,0.24893759723674352,0.3203230713017178,48.913401192770564,90.94424881216892
22,2.007,0.2466380748345835,0.31868691096113533,48.86259917061438,90.94424881216892
23,2.058,0.24446630367698793,0.31714164841725184,48.81461948302243,90.94424881216892
24,2.106,0.24242228376395683,0.3156872836700674,48.769462129994714,90.94424881216892
25,2.154,0.2403782638509257,0.31423291892288296,48.724304776966996,90.94424881216892
26,2.208,0.23807874144876567,0.3125967585823005,48.67350275481081,90.94424881216892
27,2.262,0.23577921904660565,0.310960598241718,48.62270073265463,90.94424881216892
28,2.322,0.23322419415531676,0.30914264230773747,48.56625404136998,90.94424881216892
29,2.379,0.2307969205085923,0.30741558417045595,48.51262968464957,90.94424881216892
30,2.433,0.22849739810643227,0.30577942382987344,58.461827662493384,90.94424881216892
31,2.49,0.22606684141347358,0.3040393500906397,58.40813781184674,90.94424881216892
32,2.544,0.2237755793148768,0.30235768573496025,58.35720805428412,90.94424881216892
33,2.604,0.22119260679373007,0.3005678856768347,58.30071853291826,90.94424881216892
34,2.658,0.21884895986871578,0.2989601461667125,58.24978919168378,90.94424881216892
35,2.721,0.21616739423123263,0.29703739852495276,58.19047478643496,90.94424881216892
36,2.778,0.2137697630883857,0.2952710006164212,58.13685643591249,90.94424881216892
37,2.838,0.21120303889061448,0.29344902000455947,58.08033379068663,90.94424881216892
38,2.898,0.2086725977838871,0.2915787686309918,58.02381797234949,90.94424881216892
39,2.958,0.20613669758812203,0.28971338390296075,57.96729251782698,90.94424881216892
40,3.018,0.20356102309763427,0.2879071928392478,57.9107813243725,90.94424881216892
41,3.078,0.200942705454072,0.2861747527518786,57.85431033999777,90.94424881216892
42,3.135,0.1984889913075811,0.28448196486086463,57.800673251091524,90.94424881216892
43,3.195,0.19594520320731942,0.2826580077651217,57.74426275681065,90.94424881216892
44,3.252,0.19348061853399376,0.28099799719426105,57.69068634176949,90.94424881216892
45,3.312,0.19083729507961417,0.27931882932538765,57.63426656057318,90.94424881216892
46,3.375,0.18808876161466076,0.27753944272953646,57.575114834904106,90.94424881216892
47,3.432,0.18554727313898484,0.27600309059490236,57.5215494840578,90.94424881216892
48,3.498,0.1825767685660681,0.2742775133180445,57.45954788195038,90.94424881216892
49,3.564,0.17963831427855836,0.2724782664347428,57.39748090348377,90.94424881216892
50,3.63,0.17665580432064315,0.2707673241259316,57.33545958589757,90.94424881216892
51,3.693,0.17378370046387073,0.2691786446221316,57.27625687626592,90.94424881216892
52,3.753,0.17099584484116367,0.26774245103516675,57.21980847573076,90.94424881216892
53,3.81,0.16835211457593344,0.26636312069521195,57.16616535706837,90.94424881216892
54,3.867,0.16566755941109343,0.2650343732804995,57.11243599858153,90.94424881216892
55,3.93,0.1626925018624935,0.2635702982457469,57.05301833897112,90.94424881216892
56,3.993,0.1596792410082136,0.26219722528506106,56.99362908402077,90.94424881216892
57,4.056,0.1566176420672618,0.2609010220384617,56.934154514959,90.94424881216892
58,4.122,0.1534268573925029,0.2595446155235754,56.87194945498007,90.94424881216892
59,4.185,0.15035199673736338,0.25834927446133793,56.812639069397314,90.94424881216892
60,4.251,0.14709900719637575,0.25715672025497316,56.75044953802357,90.94424881216892
61,4.314,0.14402218371101183,0.2559404687661782,56.69107861330158,90.94424881216892
62,4.383,0.14069416564180928,0.25453626584135325,56.626126620658944,90.94424881216892
63,4.443,0.13778204791070628,0.25336018338685007,56.569648845501916,90.94424881216892
64,4.503,0.13489684380693448,0.2521199673224606,56.513172151441644,90.94424881216892
65,4.566,0.13186082244886446,0.2508672273501179,56.45395589432656,90.94424881216892
66,4.632,0.12870970325682315,0.24950965856645277,56.391981293492265,90.94424881216892
67,4.695,0.1257395341371313,0.24815565128916975,56.33289359502003,90.94424881216892
68,4.755,0.12293714292761297,0.24682541317755477,56.276662552962506,90.94424881216892
69,4.821,0.11988219974913006,0.24531878946941363,56.21484703298116,90.94424881216892
70,4.884,0.11696046875833363,0.24385841973857025,56.15574566210473,90.94424881216892
71,4.95,0.11391908496633504,0.24232105083662167,56.09391988042862,90.94424881216892
72,5.01,0.11201460433354271,0.23987750777338554,56.03771462435944,90.94424881216892
73,5.085,0.1096340035425523,0.2368230789443404,55.96745805427296,90.94424881216892
74,5.145,0.10772952290975997,0.23437953588110427,55.911252798203776,90.94424881216892
75,5.205,0.10582504227696762,0.23193599281786814,55.85504754213459,90.94424881216892
76,5.313,0.10239697713794142,0.22753761530404315,55.75387808121006,90.94424881216892
77,5.379,0.10030204844186985,0.2248497179344834,55.692052299533955,90.94424881216892
78,5.466,0.09754055152432098,0.22130658049279103,55.61055467823364,90.94424881216892
79,5.568,0.094302934448574,0.21715255728528965,55.515005742916024,90.94424881216892
80,5.652,0.09163666156266474,0.21373159699675912,55.43631838441917,90.94424881216892
81,5.724,0.08935128480331395,0.2107993453208758,55.368872077136146,90.94424881216892
82,5.796,0.08706590804396315,0.2078670936449925,55.301425769853125,90.94424881216892
83,5.859,0.0850662033795312,0.20530137342859459,55.242410250980484,90.94424881216892
84,5.931,0.08278082662018041,0.20236912175271127,55.17496394369746,90.94424881216892
85,5.997,0.08068589792410884,0.19968122438315156,55.11313816202136,90.94424881216892
86,6.06,0.07868619325967689,0.19711550416675364,55.054122643148716,90.94424881216892
87,6.132,0.0764008165003261,0.1941832524908703,54.986676335865695,90.94424881216892
88,6.195,0.07440111183589415,0.19161753227447237,54.927660816993054,90.94424881216892
89,6.252,0.07259185523474145,0.18929616636439808,54.87426582372733,90.94424881216892
90,6.312,0.07068737460194911,0.18685262330116198,54.818060567658144,90.94424881216892
91,6.378,0.06859244590587756,0.18416472593160224,54.75623478598204,90.94424881216892
92,6.438,0.06668796527308522,0.18172118286836614,54.700029529912854,90.94424881216892
93,6.498,0.0647834846402929,0.17927763980513003,54.64382427384367,90.94424881216892
94,6.558,0.06287900400750057,0.17683409674189393,54.587619017774486,90.94424881216892
95,6.618,0.060974523374708246,0.1743905536786578,54.5314137617053,90.94424881216892
96,6.678,0.05907004274191592,0.1719470106154217,54.47520850563612,90.94424881216892
97,6.738,0.05716556210912359,0.1695034675521856,54.419003249566934,90.94424881216892
98,6.795,0.05535630550797088,0.16718210164211128,54.36560825630121,90.94424881216892
99,6.855,0.05345182487517856,0.16473855857887518,54.309403000232024,90.94424881216892
100,6.921,0.05135689617910699,0.16205066120931547,54.24757721855592,90.94424881216892
101,6.984,0.04935719151467505,0.15948494099291755,54.18856169968328,90.94424881216892
102,7.044,0.047452710881882715,0.15704139792968144,54.13235644361409,90.94424881216892
103,7.107,0.04545300621745076,0.15447567771328352,64.07334092474146,90.94424881216892
104,7.173,0.04333891335616871,0.15180533000818655,64.01152770401858,90.94424881216892
105,7.233,0.04142406502868716,0.14938431998528387,63.95539489978043,90.94424881216892
106,7.296,0.03944818526772344,0.14679891863904154,63.89637282841945,90.94424881216892
107,7.359,0.037505554119559296,0.14419492373394954,63.837384018670036,90.94424881216892
108,7.425,0.03545530096573992,0.14146720593757253,63.77552965000034,90.94424881216892
109,7.485,0.033552429703305395,0.13901287490226838,63.71927620474436,90.94424881216892
110,7.548,0.03157514342948516,0.13642771395494133,63.66024988825516,90.94424881216892
111,7.614,0.029556368863349853,0.13367050981920392,63.59836399271475,90.94424881216892
112,7.677,0.02755499315727054,0.13107895487426938,63.53921128106048,90.94424881216892
113,7.74,0.025586776445415606,0.12846910765006983,63.48009425309572,90.94424881216892
114,7.803,0.023659588382426523,0.12584195351921126,63.42104506541784,90.94424881216892
115,7.863,0.021868074332068534,0.12331205521179507,63.3648274608212,90.94424881216892
116,7.926,0.02002820430828068,0.1206199474772101,63.30576200252464,90.94424881216892
117,7.989,0.018244182870126427,0.11790826948755898,63.24679159571599,90.94424881216892
118,8.049,0.016613498277186188,0.11529298915812672,63.19068899294086,90.94424881216892
119,8.115,0.014744919616596653,0.1124503377986048,63.128901994317665,90.94424881216892
120,8.187,0.018480067025705278,0.10932811076876643,63.061604350191715,90.94424881216892
121,8.244,0.020035906823801707,0.10683498054345412,63.00823744391974,90.94424881216892
122,8.304,0.02160000339324221,0.10415307790482778,62.951989831624246,90.94424881216892
123,8.367,0.023266134208257558,0.10135381926477478,62.89294472198921,90.94424881216892
124,8.43,0.024864970772126762,0.09851782877752449,62.833912111675694,90.94424881216892
125,8.493,0.026396461973006807,0.09564639781443214,62.77488789646924,90.94424881216892
126,8.556,0.027955971681182894,0.09280773085082727,62.71596272004682,90.94424881216892
127,8.625,0.029711663907354562,0.08972288154217548,62.651411745720594,90.94424881216892
128,8.685,0.031209165616052536,0.08704166985063698,62.59537926430179,90.94424881216892
129,8.748,0.032702299974080244,0.0841990567112576,62.536632899010215,90.94424881216892
130,8.814,0.034310155677795676,0.08123196257994808,62.475019114886415,90.94424881216892
131,8.877,0.035763321942446843,0.07835402938297815,62.41618891482308,90.94424881216892
132,8.94,0.037303440987746114,0.07550610993022866,62.357271138688056,90.94424881216892
133,9.0,0.038748455368551184,0.07276586816853274,62.30106687186712,90.94424881216892
134,9.063,0.040231884192283414,0.06985416101619171,62.24195628630753,90.94424881216892
135,9.129,0.0417573846865076,0.06679792949676874,62.18007968444707,90.94424881216892
136,9.189,0.04306606752684677,0.06397532950538198,62.12379014442095,90.94424881216892
137,9.252,0.044361658356683875,0.06097451631578708,62.06467482396688,90.94424881216892
138,9.312,0.04562398011821135,0.058112699180271475,62.00827887633497,90.94424881216892
139,9.378,0.046923936082989566,0.05491314727912815,61.94616067733608,90.94424881216892
140,9.441,0.04808328766498286,0.05182414482534583,61.886847940700505,90.94424881216892
141,9.507,0.04925412212421022,0.04858520881836803,61.82479047746294,90.94424881216892
142,9.576,0.05039842613488708,0.04516653413932641,61.75988346328621,90.94424881216892
143,9.639,0.051396002410227126,0.04201998228077551,61.70056111276136,90.94424881216892
144,9.708,0.0523981585350875,0.03855614625091751,61.63564903191463,90.94424881216892
145,9.807,0.05377472762981016,0.033593491519239814,61.5426655888127,90.94424881216892
146,9.879,0.054748114055182664,0.02998999186565122,61.47512337663995,90.94424881216892
147,9.951,0.05563870887303888,0.02637506659122848,61.40764283847768,90.94424881216892
148,10.026,0.05651593119060712,0.02259698718583348,61.33734778542921,90.94424881216892
149,10.098,0.05744890390051179,0.019002834742194864,61.2699296216424,90.94424881216892
150,10.167,0.05828591233058633,0.015553871489479171,61.2053811896458,90.94424881216892
151,10.233,0.05909260944287753,0.019009884091578392,61.14353830808846,90.94424881216892
152,10.302,0.06001096412487256,0.022464137824740955,61.0788287705447,90.94424881216892
153,10.368,0.06091053660855315,0.025756643123292115,61.01696892648949,90.94424881216892
154,10.437,0.0619285548601413,0.02916013124247595,60.952398719503904,90.94424881216892
155,10.506,0.06289960658614167,0.03257690044330159,60.88783107025724,90.94424881216892
156,10.575,0.06385432572191432,0.03599784738831342,60.823266021641004,90.94424881216892
157,10.641,0.06695636919531711,0.03738299617293606,60.76150814905156,90.94424881216892
158,10.71,0.07019941464478366,0.038831106265950634,60.69694310043532,90.94424881216892
159,10.776,0.07330145811818643,0.04021625505057327,60.635185227845874,90.94424881216892
160,10.842,0.07640350159158922,0.04160140383519591,60.57342735525643,90.94424881216892
161,10.911,0.07964654704105575,0.04304951392821048,60.50886230664019,90.94424881216892
162,10.98,0.0828895924905223,0.04449762402122505,60.44429725802395,90.94424881216892
163,11.049,0.08613263793998885,0.04594573411423962,60.37973220940771,90.94424881216892
164,11.121,0.08951668536551914,0.04745680551564613,60.31235998476468,90.94424881216892
165,11.19,0.09275973081498569,0.048904915608660705,60.247794936148445,90.94424881216892
166,11.265,0.09628478021657975,0.05047894831845915,60.17761553547862,90.94424881216892
167,11.331,0.09938682368998254,0.051864097103081784,60.11585766288918,90.94424881216892
168,11.397,0.10248886716338532,0.053249245887704424,60.05409979029973,90.94424881216892
169,11.463,0.10559091063678809,0.05463439467232706,59.992341917710284,90.94424881216892
170,11.535,0.10898590979626226,0.05608034950218085,59.92507206719865,90.94424881216892
171,11.601,0.11213981849028935,0.05733765096672381,59.86332678616983,90.94424881216892
172,11.673,0.11556337087207622,0.05871555242399351,59.79605475159979,90.94424881216892
173,11.742,0.1188631227930383,0.06000900092859901,59.73153750077334,90.94424881216892
174,11.811,0.12219587475429636,0.06119795165802431,59.667056875439435,90.94424881216892
175,11.88,0.12553652764112216,0.062337175391662746,59.602633338226156,90.94424881216892
176,11.946,0.12873990015083964,0.06341002177124813,59.54099704816755,90.94424881216892
177,12.012,0.13193362898897112,0.06455220984934165,59.47927387919238,90.94424881216892
178,12.084,0.1354309488582172,0.06577922533240298,59.41190018716836,90.94424881216892
179,12.15,0.13864529204219106,0.06691024168518725,59.35007658260623,90.94424881216892
180,12.216,0.1419001812144139,0.06796779218957505,59.28815785146216,90.94424881216892
181,12.285,0.14529928458071995,0.0690563246388609,59.22348095954348,90.94424881216892
182,12.354,0.14867309193343514,0.07018895933276989,59.15886994343743,90.94424881216892
183,12.423,0.152016254073495,0.07136865816178561,59.09434632759432,90.94424881216892
184,12.492,0.15539065637855046,0.07244418469305994,59.02984535575436,90.94424881216892
185,12.561,0.1587790099662973,0.07346284449059222,58.96536674869101,90.94424881216892
186,12.636,0.1624571512274779,0.07464662073166582,58.89516539420394,90.94424881216892
187,12.708,0.16597920563083335,0.0758665565042365,58.827657138394635,90.94424881216892
188,12.783,0.16969242479307636,0.07705702220717987,58.757228948545446,90.94424881216892
189,12.855,0.17326892559652898,0.0781840515319276,58.68957651715401,90.94424881216892
190,12.927,0.17683631638871877,0.07928933859034663,58.62202123846154,90.94424881216892
191,12.996,0.18023059064611732,0.08038539043347338,58.55735903642276,90.94424881216892
192,13.071,0.18390563825434386,0.08161193761995393,58.48709123307573,90.94424881216892
193,13.146,0.1875544251887307,0.08289514746605872,58.41686486041353,90.94424881216892
194,13.221,0.19120503271015238,0.08411419044196787,58.34676063250179,90.94424881216892
195,13.293,0.19473850153613476,0.08523741066742749,58.2793781248709,90.94424881216892
196,13.365,0.19828024408502506,0.08637849826210223,58.21191033048852,90.94424881216892
197,13.437,0.20181580657972198,0.08749056075527954,58.14453657640485,90.94424881216892
198,13.509,0.20535560605330866,0.08854744491433045,58.077240395647515,90.94424881216892
199,13.584,0.20906735723437314,0.0896042687895068,58.00706893611024,90.94424881216892
200,13.656,0.21262328759917434,0.09068311985996673,57.939633379012896,90.94424881216892
201,13.734,0.21610276658321476,0.09270774473968904,57.86657819215745,90.94424881216892
202,13.803,0.2191807672229428,0.09449875905636648,57.801952449939165,90.94424881216892
203,13.878,0.22252642009221243,0.09644551374840717,57.73170707796277,90.94424881216892
204,13.953,0.2258720729614821,0.09839226844044785,57.66146170598637,90.94424881216892
205,14.031,0.22935155194552248,0.10041689332017016,57.58840651913092,90.94424881216892
206,14.112,0.23296485704433367,0.1025193883875741,57.512541517396414,90.94424881216892
207,14.193,0.23657816214314487,0.10462188345497805,57.43667651566191,90.94424881216892
208,14.271,0.2400576411271853,0.10664650833470035,57.36362132880646,90.94424881216892
209,14.358,0.24393859845553809,0.10890474377746755,57.28213669731384,90.94424881216892
210,14.43,0.24715042521003694,0.1107736282818266,57.2147011402165,90.94424881216892
211,14.508,0.2506299041940774,0.1127982531615489,57.14164595336105,90.94424881216892
212,14.586,0.2541093831781178,0.1148228780412712,57.0685907665056,90.94424881216892
213,14.664,0.2575888621621582,0.11684750292099351,56.99553557965015,90.94424881216892
214,14.739,0.26093451503142784,0.1187942576130342,56.925290207673754,90.94424881216892
215,14.814,0.2642801679006975,0.12074101230507488,56.855044835697356,90.94424881216892
216,14.889,0.26762582076996716,0.12268776699711556,56.78479946372096,90.94424881216892
217,14.967,0.27110529975400754,0.12471239187683787,56.71174427686551,90.94424881216892
218,15.042,0.2744509526232772,0.12665914656887856,56.64149890488911,90.94424881216892
219,15.117,0.2777966054925468,0.12860590126091925,56.57125353291271,90.94424881216892
220,15.195,0.28127608447658725,0.13063052614064155,56.498198346057265,90.94424881216892
221,15.27,0.2846217373458569,0.13257728083268222,56.42795297408087,90.94424881216892
222,15.345,0.2879673902151265,0.13452403552472292,56.35770760210447,90.94424881216892
223,15.423,0.2914468691991669,0.13654866040444522,56.28465241524902,90.94424881216892
224,15.498,0.29479252206843654,0.1384954150964859,56.21440704327262,90.94424881216892
225,15.573,0.2981381749377062,0.14044216978852658,56.144161671296224,90.94424881216892
226,15.648,0.30148382780697586,0.14238892448056728,56.073916299319826,90.94424881216892
227,15.723,0.3048294806762455,0.14433567917260798,56.00367092734343,90.94424881216892
228,15.801,0.3083089596602859,0.14636030405233028,55.93061574048798,90.94424881216892
229,15.876,0.3116546125295555,0.14830705874437095,65.86037036851158,90.94424881216892
230,15.954,0.3150860009981039,0.1503780249578912,65.78742874685685,90.94424881216892
231,16.029,0.3183699069365818,0.15242753702061335,65.71718230767291,90.94424881216892
232,16.104,0.32159117763355455,0.154553616109724,65.64700850694392,90.94424881216892
