,t,x,y,energy,sight
0,12.561,0.6698077608206714,0.8520607844647483,49.934018634008666,95.29050823013331
1,12.636,0.6672754088424868,0.8548627003337905,49.862202435339036,95.29050823013331
2,12.708,0.6649226440427427,0.85762271733806,49.7932518968238,95.29050823013331
3,12.783,0.6624177551726415,0.8604362474300397,49.72149773157118,95.29050823013331
4,12.855,0.6599497393649877,0.863061360073357,49.652698457561556,95.29050823013331
5,12.927,0.6574935703217727,0.8656931912454626,49.58391963434184,95.29050823013331
6,12.996,0.6551037999215116,0.8681617168745264,49.51809697396575,95.29050823013331
7,13.071,0.6524624275137143,0.8707870236100976,49.44661733992573,95.29050823013331
8,13.146,0.6498975924989068,0.873470639926721,49.37521422446538,95.29050823013331
9,13.221,0.6473464308433748,0.8761757362862129,49.30377166341246,95.29050823013331
10,13.293,0.6449371533394024,0.8788230908740884,49.23512316543455,95.29050823013331
11,13.365,0.6425874873358739,0.8815269062866802,49.166458185269434,95.29050823013331
12,13.437,0.6402798800619374,0.8842813606243609,49.097721385201545,95.29050823013331
13,13.509,0.6378944860440179,0.8869860991608469,49.02890134131469,95.29050823013331
14,13.584,0.6354292564012967,0.8898163341889852,48.9572346887341,95.29050823013331
15,13.656,0.6330858417846945,0.8925744401316958,48.88833224823528,95.29050823013331
16,13.734,0.630470350894121,0.8955216120701376,48.813562735316395,95.29050823013331
17,13.803,0.6282236650945826,0.8981780179708408,48.747462905145404,95.29050823013331
18,13.878,0.6257764935610234,0.9010461123145561,48.67568819649244,95.29050823013331
19,13.953,0.6232693283245337,0.9038726794488907,48.603861984653676,95.29050823013331
20,14.031,0.6206810336927524,0.9068527020954559,48.5290493136375,95.29050823013331
21,14.112,0.6179076853078549,0.9098818945098411,48.451307624430235,95.29050823013331
22,14.193,0.6151580785730031,0.912908052786641,48.37368267598784,95.29050823013331
23,14.271,0.6125187677474021,0.9158247864620248,48.298956500114,95.29050823013331
24,14.358,0.609496780124507,0.9190315894116935,48.2154873115793,95.29050823013331
25,14.43,0.606992710978455,0.9216653433198262,48.14648932901327,95.29050823013331
26,14.508,0.6042622173929716,0.9245080170127528,48.07171187991175,95.29050823013331
27,14.586,0.601472574447869,0.9272868247978148,47.9969608365855,95.29050823013331
28,14.664,0.5987732481834876,0.9301366978392048,47.92228772305755,95.29050823013331
29,14.739,0.5962227582896712,0.9329217103391164,47.85047342728761,95.29050823013331
30,14.814,0.5937131400956661,0.935717674794095,47.778782903259064,95.29050823013331
31,14.889,0.5912151021608106,0.9385377795358544,47.70702638978149,95.29050823013331
32,14.967,0.5887028916486081,0.9415408024897047,47.63241758986316,95.29050823013331
33,15.042,0.5862817652150895,0.944443696638765,47.56058012610013,95.29050823013331
34,15.117,0.5838643885211694,0.9473659581000551,47.48866264764568,95.29050823013331
35,15.195,0.5812506385856655,0.9503446838614276,47.413749088387725,95.29050823013331
36,15.27,0.5788263402225187,0.9532777205123489,47.341750235124785,95.29050823013331
37,15.345,0.5763836255307012,0.9561960888624366,47.26974818451606,95.29050823013331
38,15.423,0.5739084744592268,0.959283132757092,47.19487364342757,95.29050823013331
39,15.498,0.5714825945396318,0.9621980048074847,47.122957810091265,95.29050823013331
40,15.573,0.5690791264196695,0.9651495070213189,47.050952148011085,95.29050823013331
41,15.648,0.5666438638940555,0.9680850724739394,46.97889607559792,95.29050823013331
42,15.723,0.5641288275864873,0.9709356419358028,46.906921430550454,95.29050823013331
43,15.801,0.5615068172852312,0.9739117079292656,46.83198574684803,95.29050823013331
44,15.876,0.5589872846073517,0.9767972193484491,46.75982404733751,95.29050823013331
45,15.954,0.5562751695092735,0.9797140897230097,46.68478225539988,95.29050823013331
46,16.029,0.5536001586304752,0.9824383765002216,46.61270155181836,95.29050823013331
47,16.104,0.5510195279575536,0.9852372081768637,46.54069161166273,95.29050823013331
48,16.182,0.5483005381465825,0.9806575881528719,46.46590709669788,95.29050823013331
49,16.254,0.545726799814861,0.9781104768583295,46.39699301948975,95.29050823013331
50,16.332,0.5429050920034009,0.9753703836167371,46.322269407108166,95.29050823013331
51,16.407,0.5402844342888323,0.9726669618778091,46.25052720877325,95.29050823013331
52,16.482,0.537758783111286,0.9698981463200275,46.17889667621762,95.29050823013331
53,16.557,0.5353052892750466,0.9670851965795073,46.10736276882524,95.29050823013331
54,16.632,0.5329039983157836,0.9642168101824777,46.03577617729995,95.29050823013331
55,16.707,0.5305105811245654,0.9613513521839507,45.96423628907431,95.29050823013331
56,16.785,0.5279850370138035,0.9584281637807477,45.889961499201654,95.29050823013331
57,16.86,0.5243355222131192,0.9591199492541476,45.81854343201641,95.29050823013331
58,16.938,0.5205400268204075,0.9598394061464834,45.74426864214376,95.29050823013331
59,17.013,0.5168905120197231,0.9605311916198833,45.67285057495852,95.29050823013331
60,17.091,0.5130950166270114,0.9612506485122191,45.59857578508586,95.29050823013331
61,17.166,0.5094455018263271,0.961942433985619,45.52715771790062,95.29050823013331
62,17.241,0.5057959870256428,0.9626342194590188,45.45573965071538,95.29050823013331
63,17.319,0.502000491632931,0.9633536763513547,45.381464860842726,95.29050823013331
64,17.397,0.49820499624021936,0.9640731332436905,45.30719007097007,95.29050823013331
65,17.472,0.494555481439535,0.9647649187170904,45.23577200378483,95.29050823013331
66,17.544,0.491051947230878,0.9654290327715543,45.167210659286994,95.29050823013331
67,17.622,0.48725645183816635,0.9661484896638901,45.09293586941434,95.29050823013331
68,17.703,0.48331497585342725,0.966895617975162,45.015804356854275,95.29050823013331
69,17.781,0.4795194804607156,0.9676150748674978,44.94152956698162,95.29050823013331
70,17.853,0.4760159462520586,0.9682791889219617,44.872968222483784,95.29050823013331
71,17.928,0.47236643145137425,0.9689709743953616,44.80155015529854,95.29050823013331
72,18.0,0.4688628972427173,0.9696350884498255,44.732988810800705,95.29050823013331
73,18.078,0.4650674018500056,0.9703545453421614,44.65871402092805,95.29050823013331
74,18.153,0.46141788704932124,0.9710463308155612,44.58729595374281,95.29050823013331
75,18.228,0.45776837224863687,0.9717381162889611,44.51587788655757,95.29050823013331
76,18.306,0.4539728768559252,0.9724575731812969,44.441603096684915,95.29050823013331
77,18.384,0.4501773814632135,0.9731770300736328,44.36732830681226,95.29050823013331
78,18.459,0.44652786666252914,0.9738688155470326,44.29591023962702,95.29050823013331
79,18.54,0.44258639067779004,0.9746159438583046,44.218778727066955,95.29050823013331
80,18.615,0.43893687587710567,0.9753077293317045,44.14736065988171,95.29050823013331
81,18.693,0.435141380484394,0.9760271862240403,44.07308587000906,95.29050823013331
82,18.768,0.4314918656837096,0.9767189716974402,44.00166780282382,95.29050823013331
83,18.843,0.42784235088302525,0.97741075717084,43.930249735638576,95.29050823013331
84,18.921,0.42404685549031357,0.9781302140631759,43.85597494576592,95.29050823013331
85,18.999,0.4202513600976019,0.9788496709555117,43.78170015589327,95.29050823013331
86,19.077,0.4164558647048902,0.9795691278478476,43.707425366020615,95.29050823013331
87,19.152,0.41280634990420584,0.9802609133212474,43.63600729883537,95.29050823013331
88,19.227,0.40915683510352147,0.9809526987946473,43.56458923165013,95.29050823013331
89,19.308,0.40521535911878237,0.9816998271059193,43.48745771909007,95.29050823013331
90,19.386,0.4014198637260707,0.9824192839982551,53.41318292921741,95.29050823013331
91,19.467,0.39748941619909217,0.9831231076097582,53.33617106599289,95.29050823013331
92,19.548,0.3935750407189268,0.98394688642982,53.25911343400455,95.29050823013331
93,19.626,0.38979086792906303,0.9847065459997923,53.184860486818046,95.29050823013331
94,19.707,0.385837482262651,0.9832712507087258,53.10762379895444,95.29050823013331
95,19.785,0.38202246702572557,0.9826107274048492,53.03329338240885,95.29050823013331
96,19.869,0.3779209929083581,0.9819780211694429,52.95337076942166,95.29050823013331
97,19.95,0.37396832742019387,0.9812489713062886,52.87619013161334,95.29050823013331
98,20.031,0.37003879775263815,0.9804648168951722,52.799088415203606,95.29050823013331
99,20.112,0.3661118868247412,0.9796760596835737,52.721997349692344,95.29050823013331
100,20.196,0.36206353606367,0.9787687291327497,52.642082459874985,95.29050823013331
101,20.274,0.3582956987338215,0.978022111852435,52.56794836701083,95.29050823013331
102,20.355,0.3543876278853993,0.9772492326748686,52.490995415520146,95.29050823013331
103,20.436,0.35046810964563924,0.9765585567983022,52.41406713895362,95.29050823013331
104,20.523,0.34625213426554013,0.9758942691908757,52.33148351733414,95.29050823013331
105,20.601,0.3424693658643101,0.975220651846237,52.25734187645705,95.29050823013331
106,20.685,0.33837819547927234,0.9746105797063656,52.17750618684269,95.29050823013331
107,20.766,0.3344420845791628,0.9741021525683051,52.1006489168229,95.29050823013331
108,20.844,0.3306574716557686,0.9736199989325568,52.026680559065866,95.29050823013331
109,20.925,0.3267132327098622,0.9731253444868774,51.949782816101646,95.29050823013331
110,21.003,0.3229064386257227,0.9727495469146685,51.87574984443333,95.29050823013331
111,21.081,0.31910252860013466,0.9723199247567178,51.80169897603875,95.29050823013331
112,21.159,0.3152744226495755,0.9719631991015886,51.727541889795006,95.29050823013331
113,21.24,0.3113022072508502,0.971498984360094,51.650489823402175,95.29050823013331
114,21.321,0.30731369092074007,0.9710372876837706,51.573335991497096,95.29050823013331
115,21.402,0.30332360311597495,0.9704557745968032,51.49607278205082,95.29050823013331
116,21.483,0.2993338160939863,0.9698021075901172,51.418740840548594,95.29050823013331
117,21.561,0.29546552840779455,0.9692418648039423,51.344174435278994,95.29050823013331
118,21.642,0.2914252684422966,0.9687325141763805,51.26665522480879,95.29050823013331
119,21.723,0.28941451855243466,0.9651913246119795,51.18913601433858,95.29050823013331
120,21.804,0.28740376866257267,0.9616501350475785,51.11161680386837,95.29050823013331
121,21.885,0.28539301877271067,0.9581089454831775,51.034097593398165,95.29050823013331
122,21.966,0.28338226888284873,0.9545677559187764,50.95657838292796,95.29050823013331
123,22.047,0.28137151899298674,0.9510265663543753,50.87905917245775,95.29050823013331
124,22.128,0.27936076910312474,0.9474853767899744,50.801539961987544,95.29050823013331
125,22.206,0.2774244914314058,0.9440753423946251,50.7268918333866,95.29050823013331
126,22.29,0.2753392693234008,0.9404029976611723,50.64650154104713,95.29050823013331
127,22.368,0.27340299165168186,0.936992963265823,50.57185341244619,95.29050823013331
128,22.446,0.2714667139799629,0.9335829288704739,50.49720528384525,95.29050823013331
129,22.527,0.2694559640901009,0.9300417393060728,50.41968607337504,95.29050823013331
130,22.605,0.267519686418382,0.9266317049107237,50.3450379447741,95.29050823013331
131,22.683,0.26558340874666303,0.9232216705153744,50.27038981617316,95.29050823013331
132,22.761,0.2636471310749441,0.9198116361200253,50.195741687572216,95.29050823013331
133,22.842,0.26163638118508203,0.9162704465556242,50.11822247710201,95.29050823013331
134,22.92,0.2597001035133631,0.912860412160275,50.04357434850107,95.29050823013331
135,23.001,0.2576893536235011,0.9093192225958739,49.96605513803086,95.29050823013331
136,23.079,0.2557530759517821,0.9059091882005248,49.89140700942992,95.29050823013331
137,23.157,0.2538167982800631,0.9024991538051756,49.81675888082898,95.29050823013331
138,23.235,0.25188052060834415,0.8990891194098264,49.74211075222804,95.29050823013331
139,23.313,0.24994424293662515,0.8956790850144772,49.667462623627095,95.29050823013331
140,23.394,0.24793349304676315,0.8921378954500762,49.58994341315689,95.29050823013331
141,23.475,0.24592274315690116,0.8885967058856752,59.51242420268668,95.29050823013331
142,23.559,0.2438975025675226,0.8848920628761354,59.43204019111146,95.29050823013331
143,23.64,0.24192995116458688,0.8813204620890751,59.35448607322483,95.29050823013331
144,23.718,0.2399500093048263,0.8779122137881983,59.2797086750233,95.29050823013331
145,23.799,0.2378486317251177,0.8743834501884218,59.2019666022178,95.29050823013331
146,23.88,0.23586632236277022,0.8708060714181171,59.124334440331474,95.29050823013331
147,23.958,0.2340621305311271,0.8673220697662825,59.049673364748294,95.29050823013331
148,24.036,0.23215862853641162,0.8638864873352496,58.974985249249414,95.29050823013331
149,24.117,0.23015286319310474,0.860312712795847,58.89730011669402,95.29050823013331
150,24.198,0.2280594839885069,0.856771240220614,58.81951421124345,95.29050823013331
151,24.279,0.22591746340690105,0.8532453237381802,58.7416536799659,95.29050823013331
152,24.357,0.22378472162879648,0.8498849921226753,58.66663060277509,95.29050823013331
153,24.438,0.2216399502696738,0.8463659565105935,58.588798540322585,95.29050823013331
154,24.519,0.2194448024496868,0.8428807570615238,58.510980743215384,95.29050823013331
155,24.6,0.21730016309045933,0.8393537200919479,58.43310537903965,95.29050823013331
156,24.681,0.2155891693130682,0.8355971301409907,58.35523001486392,95.29050823013331
157,24.759,0.2139415456755805,0.8319796731511803,58.280238923435434,95.29050823013331
158,24.84,0.21223055189818937,0.8282230832002231,58.2023635592597,95.29050823013331
159,24.921,0.21051955812079828,0.8244664932492659,58.12448819508397,95.29050823013331
160,25.002,0.20880856434340717,0.8207099032983087,58.04661283090824,95.29050823013331
161,25.083,0.20709757056601608,0.8169533133473517,57.968737466732506,95.29050823013331
162,25.164,0.20538657678862499,0.8131967233963945,57.890862102556774,95.29050823013331
163,25.242,0.20373895315113724,0.809579266406584,57.81587101112829,95.29050823013331
164,25.323,0.20202795937374612,0.8058226764556269,57.737995646952555,95.29050823013331
165,25.404,0.20031696559635503,0.8020660865046697,57.66012028277682,95.29050823013331
166,25.482,0.1986693419588673,0.7984486295148592,57.58512919134834,95.29050823013331
167,25.56,0.19702171832137955,0.7948311725250485,57.51013809991985,95.29050823013331
168,25.641,0.19531072454398843,0.7910745825740915,57.43226273574412,95.29050823013331
169,25.722,0.1935997307665973,0.7873179926231344,57.354387371568386,95.29050823013331
170,25.8,0.19195210712910957,0.7837005356333239,57.2793962801399,95.29050823013331
171,25.878,0.19030448349162182,0.7800830786435133,57.20440518871141,95.29050823013331
172,25.956,0.1886568598541341,0.7764656216537028,57.129414097282925,95.29050823013331
173,26.037,0.18694586607674296,0.7727090317027457,57.05153873310719,95.29050823013331
174,26.115,0.18529824243925525,0.7690915747129352,56.97654764167871,95.29050823013331
175,26.193,0.18365061880176747,0.7654741177231246,56.90155655025022,95.29050823013331
176,26.274,0.18193962502437636,0.7617175277721675,56.82368118607449,95.29050823013331
177,26.355,0.18022863124698524,0.7579609378212104,56.745805821898756,95.29050823013331
178,26.433,0.1785810076094975,0.7543434808313999,56.67081473047027,95.29050823013331
179,26.514,0.17687001383210638,0.7505868908804428,56.59293936629454,95.29050823013331
180,26.598,0.17509564991481186,0.7466911679683392,66.51217972937155,95.29050823013331
181,26.688,0.17065782064018487,0.747849637340903,66.42565154695407,95.29050823013331
182,26.763,0.1669596295779957,0.7488150284847064,66.35354472827284,95.29050823013331
183,26.841,0.163113510873319,0.7498190352742617,66.27855363684435,95.29050823013331
184,26.925,0.1589715368836671,0.7509002733553214,66.19779399992137,95.29050823013331
185,27.003,0.1551254181789904,0.7519042801448768,66.12280290849289,95.29050823013331
186,27.084,0.1511313718318261,0.7529469025801843,66.04492754431715,95.29050823013331
187,27.162,0.14728525312714938,0.7539509093697396,65.96993645288866,95.29050823013331
188,27.243,0.14329120677998508,0.7549935318050471,65.89206108871292,95.29050823013331
189,27.324,0.13929716043282078,0.7560361542403545,65.81418572453718,95.29050823013331
190,27.402,0.13545104172814407,0.75704016102991,65.7391946331087,95.29050823013331
191,27.483,0.13145699538097977,0.7580827834652174,65.66131926893296,95.29050823013331
192,27.564,0.12746294903381547,0.7591254059005249,65.58344390475722,95.29050823013331
193,27.642,0.12361683032913875,0.7601294126900803,65.50845281332873,95.29050823013331
194,27.723,0.11962278398197446,0.7611720351253878,65.43057744915299,95.29050823013331
195,27.801,0.11577666527729776,0.7621760419149431,65.3555863577245,95.29050823013331
196,27.882,0.11178261893013346,0.7632186643502507,65.27771099354877,95.29050823013331
197,27.96,0.10793650022545673,0.764222671139806,65.20271990212028,95.29050823013331
198,28.041,0.10394245387829244,0.7652652935751136,75.12484453794454,95.29050823013331
199,28.122,0.09992189342156789,0.7662608263422633,75.04687899647857,95.29050823013331
200,28.2,0.0960066305851843,0.7671207452096002,74.97167299631417,95.29050823013331
201,28.284,0.09180151925970104,0.7681136400536368,74.89065757031109,95.29050823013331
202,28.362,0.08785353077304707,0.7689230867578394,74.81531377785693,95.29050823013331
203,28.44,0.08391126717107368,0.7698104166683464,74.73990101386686,95.29050823013331
204,28.524,0.07967567318441936,0.7707244792040652,74.6588064810392,95.29050823013331
205,28.602,0.07571566306689764,0.7715060156172961,74.58342249296126,95.29050823013331
206,28.683,0.07158411567592296,0.7721974705474628,74.50515596293198,95.29050823013331
207,28.764,0.06744535685925379,0.7728730671806016,74.42686044956413,95.29050823013331
208,28.845,0.06333494215000635,0.7736351707583932,74.34864858126228,95.29050823013331
209,28.926,0.05922893478332024,0.7744176901077708,74.27044029398049,95.29050823013331
210,29.004,0.05529658945646423,0.7752557201686215,74.19515706354855,95.29050823013331
211,29.085,0.05121652934234815,0.776092552876017,74.11704422405079,95.29050823013331
212,29.163,0.04724810938592194,0.7767776044651057,74.0417196258315,95.29050823013331
213,29.244,0.0431058266382005,0.7774836940691412,73.96336974966233,95.29050823013331
214,29.325,0.03897044956209038,0.7782667207047549,73.88497619267825,95.29050823013331
215,29.403,0.034983830947439384,0.778934256028536,73.80955556254179,95.29050823013331
216,29.487,0.030648632650271297,0.7795222902600324,73.72819353364204,95.29050823013331
217,29.565,0.026621940385758557,0.780039357203824,73.65266003881473,95.29050823013331
218,29.649,0.022266719404952097,0.7804897467735368,73.57127529163401,95.29050823013331
219,29.736,0.017775011320029687,0.781006014543485,73.48707060408762,95.29050823013331
220,29.811,0.013885026968629196,0.7813552489201858,73.41442932026085,95.29050823013331
221,29.892,0.021570053626667755,0.7817177870214317,73.33596009607184,95.29050823013331
222,29.97,0.025617663373815804,0.7820395034443018,73.26042263101878,95.29050823013331
223,30.048,0.029679177412364866,0.7824063398216445,73.18477206760355,95.29050823013331
224,30.129,0.033900467953906596,0.7826914105830759,73.10623739960415,95.29050823013331
225,30.207,0.037971396721051105,0.7829643024332771,73.03057391886578,95.29050823013331
226,30.288,0.042183865225228545,0.7833540251958582,72.95204211334209,95.29050823013331
227,30.369,0.04638608167126269,0.7836490547771493,72.87362485204193,95.29050823013331
228,30.447,0.050454226815867476,0.7838182086223157,72.79801516157323,95.29050823013331
229,30.531,0.05484914122548869,0.7840614197936351,72.71648198848726,95.29050823013331
230,30.609,0.058937253513169495,0.7841969064951524,72.64075264070975,95.29050823013331
231,30.69,0.06319912928360927,0.7842068638497703,72.56201968688949,95.29050823013331
232,30.771,0.0674501590764551,0.7842855976193263,72.48335155581456,95.29050823013331
233,30.849,0.07155889011765042,0.7843032268338166,72.40750437082063,95.29050823013331
234,30.933,0.07596253148066244,0.7842769522773569,72.3259578798337,95.29050823013331
