,t,x,y,energy,sight
0,13.584,0.5294888970999908,0.20370667678049567,49.962807476644045,20.272980195908495
1,13.656,0.5255021677392353,0.20448840886308747,49.927075493221366,20.272980195908495
2,13.734,0.5211938049858208,0.20545694195765035,49.88827187543457,20.272980195908495
3,13.803,0.5173888945398033,0.20627748729375775,49.8540350593195,20.272980195908495
4,13.878,0.5132269999647934,0.20711126828882148,49.81673318347125,20.272980195908495
5,13.953,0.5090433201530947,0.20791157766720997,49.77933564424251,20.272980195908495
6,14.031,0.504667001952601,0.2086526264679541,49.74038655046689,20.272980195908495
7,14.112,0.5001312218427356,0.20956771257767345,49.69982526589676,20.272980195908495
8,14.193,0.49559610364652434,0.2105453590348707,49.659186346827774,20.272980195908495
9,14.271,0.49127381288774064,0.2116143555317233,49.62014825722192,20.272980195908495
10,14.358,0.48647505870954444,0.21284514100383167,49.576683838738006,20.272980195908495
11,14.43,0.4824727988471591,0.2137690063308694,49.54066476547458,20.272980195908495
12,14.508,0.47814316371147286,0.214706333614884,49.50177123268194,20.272980195908495
13,14.586,0.47382707275537345,0.21562361623867546,49.46298936108321,20.272980195908495
14,14.664,0.4695222090091116,0.21651484605357335,49.42431204582422,20.272980195908495
15,14.739,0.4653979152965615,0.21749055975560708,49.38705147090392,20.272980195908495
16,14.814,0.4612695517938823,0.21849412267337268,49.34972399972037,20.272980195908495
17,14.889,0.4571021774786585,0.21941447967398564,49.31227362797343,20.272980195908495
18,14.967,0.452794898312432,0.22049559355819154,49.273310013217205,20.272980195908495
19,15.042,0.4486477055237457,0.22152724456094602,49.23582259179935,20.272980195908495
20,15.117,0.4444986738289855,0.22246794312415527,49.19845834905235,20.272980195908495
21,15.195,0.44022232664606376,0.22353422846230725,49.159709812685044,20.272980195908495
22,15.27,0.4361202684111148,0.22464507040947765,49.12237456376778,20.272980195908495
23,15.345,0.43204407746528234,0.22581308421525964,49.0851005726718,20.272980195908495
24,15.423,0.42781003365388404,0.22701756101046383,49.04638561408599,20.272980195908495
25,15.498,0.4237552535885227,0.2282768894517897,49.00907575386976,20.272980195908495
26,15.573,0.41969071452254675,0.22954577826626288,48.97168806930128,20.272980195908495
27,15.648,0.4155980506189307,0.2307404464336138,48.93426540616669,20.272980195908495
28,15.723,0.41151257244698475,0.23200344417441573,48.89676093019385,20.272980195908495
29,15.801,0.4072970032811908,0.2333746033480601,48.85784806066764,20.272980195908495
30,15.876,0.40321355384557533,0.23457871490585616,48.820464970347764,20.272980195908495
31,15.954,0.3989653580339301,0.23582052390220376,48.781596778811725,20.272980195908495
32,16.029,0.3948560463146391,0.236972486373683,48.74414686096095,20.272980195908495
33,16.104,0.39070279426955234,0.2380151143959958,48.706604784891695,20.272980195908495
34,16.182,0.38642753201301505,0.23922667400397804,48.66762367774593,20.272980195908495
35,16.254,0.382460474628761,0.24029066791061493,48.631606150049656,20.272980195908495
36,16.332,0.3781659993354191,0.24146978594211843,48.592562393054635,20.272980195908495
37,16.407,0.37407634637237125,0.24270484929737463,48.55508460944079,20.272980195908495
38,16.482,0.36997990419679005,0.24397348670042646,48.51750243038234,20.272980195908495
39,16.557,0.3658565751178662,0.24516457979379988,48.479897676021075,20.272980195908495
40,16.632,0.36172392631817885,0.24626921647320624,48.442383688233136,20.272980195908495
41,16.707,0.35761023318076657,0.24742025121548025,48.404908369587,20.272980195908495
42,16.785,0.35331448650959874,0.248518265139165,48.36598974508599,20.272980195908495
43,16.86,0.34921153980422476,0.24964810367094778,48.32861698230792,20.272980195908495
44,16.938,0.34492787895242805,0.2507035462577093,48.28983970836743,20.272980195908495
45,17.013,0.3408374252342226,0.2518196503056134,48.25256729384201,20.272980195908495
46,17.091,0.3365741100629823,0.2530155155119927,48.213687036048555,20.272980195908495
47,17.166,0.33245215908314,0.25415079296669696,48.17618776918062,20.272980195908495
48,17.241,0.32834798442741103,0.2553182503753847,48.138742541023525,20.272980195908495
49,17.319,0.32407153722238735,0.2564896513898405,48.09982311759418,20.272980195908495
50,17.397,0.3197856560912694,0.25762315249468004,48.06090844277219,20.272980195908495
51,17.472,0.31569870263509936,0.2588385923938231,48.02348326323252,20.272980195908495
52,17.544,0.3117557855288159,0.25994897745692735,47.98753600913364,20.272980195908495
53,17.622,0.307459757456891,0.2610599119594356,47.948595049978934,20.272980195908495
54,17.703,0.30299600359440715,0.2621401811427041,47.908254927307794,20.272980195908495
55,17.781,0.298703322118669,0.2631327632873085,47.86951494251728,20.272980195908495
56,17.853,0.2947349630992761,0.26395583619363766,47.833845885844276,20.272980195908495
57,17.928,0.29058998851369877,0.2647963476570193,47.7966416522813,20.272980195908495
58,18.0,0.28659491618786853,0.26555225668716365,47.760888500903,20.272980195908495
59,18.078,0.2822635992235914,0.2662953703476446,47.72222109998924,20.272980195908495
60,18.153,0.2781145469455085,0.267039605708639,47.68510686677982,20.272980195908495
61,18.228,0.27395470351670814,0.26775814594491915,47.64795312903415,20.272980195908495
62,18.306,0.26961700512588493,0.26839176184464164,47.60935530169308,20.272980195908495
63,18.384,0.26525839012196173,0.2689889457694283,47.5706576043905,20.272980195908495
64,18.459,0.2610763260859425,0.26965149633593966,47.53342209582836,20.272980195908495
65,18.54,0.2565540281548457,0.2702406883837723,47.49328737032724,20.272980195908495
66,18.615,0.25238202182138336,0.2708135172051681,47.456199531336885,20.272980195908495
67,18.693,0.24801294962415193,0.2712963583267956,47.417525284415426,20.272980195908495
68,18.768,0.24381714337233418,0.2716960854428132,47.38041404939193,20.272980195908495
69,18.843,0.23960120650781622,0.2720394551925625,47.343206220158294,20.272980195908495
70,18.921,0.23521022145587547,0.2723834822434669,47.30447584528421,20.272980195908495
71,18.999,0.2308214368508185,0.27271191700539854,47.2657671329744,20.272980195908495
72,19.077,0.2264214128698976,0.2730487875863977,47.2269826186236,20.272980195908495
73,19.152,0.22218510754439286,0.2733773207003117,47.18965236598975,20.272980195908495
74,19.227,0.2179370092034278,0.27368233854682333,47.15225805469433,20.272980195908495
75,19.308,0.21334508689192547,0.27395405184164995,47.11187093851733,20.272980195908495
76,19.386,0.20891686616661764,0.27410412154966235,47.07297210637586,20.272980195908495
77,19.467,0.2043004445501177,0.2742890605443342,47.03245589987005,20.272980195908495
78,19.548,0.19970169347523012,0.2744914567637644,46.99204799288027,20.272980195908495
79,19.626,0.1952812072798728,0.27458500615920506,46.953208597014225,20.272980195908495
80,19.707,0.19068974743228176,0.2746113008126355,46.91287536281314,20.272980195908495
81,19.785,0.18625788801420728,0.27471567836239685,46.87396164748679,20.272980195908495
82,19.869,0.1814942778918222,0.27480584027071925,46.83211621343642,20.272980195908495
83,19.95,0.1768914290381703,0.2747828928471143,46.79171020537678,20.272980195908495
84,20.031,0.1722883886433406,0.27461999257263375,46.751284895336454,20.272980195908495
85,20.112,0.16768338223809362,0.2743876458184894,46.71082795491769,20.272980195908495
86,20.196,0.1629214130579446,0.274134926845967,46.668955595469505,20.272980195908495
87,20.274,0.15848300205725163,0.27387528651252185,46.62995925345899,20.272980195908495
88,20.355,0.15386071502134815,0.2737387632934598,46.58941630647849,20.272980195908495
89,20.436,0.14924692969395242,0.2737010832933492,46.5489396863701,20.272980195908495
90,20.523,0.14430215048375877,0.27376743639616347,46.50553192182235,20.272980195908495
91,20.601,0.1398762970275688,0.27369828348569664,46.46666105261883,20.272980195908495
92,20.685,0.13509509106230383,0.2735146581511933,46.42468590664444,20.272980195908495
93,20.766,0.13046212893597683,0.273465327021792,46.38408585891082,20.272980195908495
94,20.844,0.12599830637523962,0.27332803858154403,46.34496193628276,20.272980195908495
95,20.925,0.12136573282300556,0.2730558477327715,46.30431492335078,20.272980195908495
96,21.003,0.11690122973332528,0.2727892979120764,46.265149273871174,20.272980195908495
97,21.081,0.11242447088890742,0.27241074166521373,46.22585381532387,20.272980195908495
98,21.159,0.107959414780096,0.27190832095827205,46.186555167421744,20.272980195908495
99,21.24,0.10332623051340321,0.2715069069822521,46.14584429706696,20.272980195908495
100,21.321,0.0986960129990557,0.27123157298613226,46.105211149506886,20.272980195908495
101,21.402,0.09406305698876624,0.2708459604913417,46.064510293428825,20.272980195908495
102,21.483,0.08942960866316571,0.27048601354416213,46.02381947011901,20.272980195908495
103,21.561,0.08495978731708867,0.2701231316861715,45.984576544980534,20.272980195908495
104,21.642,0.08031590394034815,0.2698372049773578,45.943852000375884,20.272980195908495
105,21.723,0.07568035558164773,0.26957389104060775,45.90318925749115,20.272980195908495
106,21.804,0.07105549546007381,0.26922853184316636,45.86256033163499,20.272980195908495
107,21.885,0.06643278910102263,0.2687578168536865,45.82187461682015,20.272980195908495
108,21.966,0.06179718234829289,0.26834783747315216,45.78114352107241,20.272980195908495
109,22.047,0.05715266547143401,0.26800606381240333,45.74039083266058,20.272980195908495
110,22.128,0.052488380476560605,0.2677042536814517,45.69952957149891,20.272980195908495
111,22.206,0.04797884245151146,0.2674871653444803,45.66009315589195,20.272980195908495
112,22.29,0.04313342980636624,0.2673458658552445,45.617716463240264,20.272980195908495
113,22.368,0.03864128174227371,0.2671265098274228,45.57839050994765,20.272980195908495
114,22.446,0.03414902204366645,0.2668885637884472,45.53905779513639,20.272980195908495
115,22.527,0.02950075097411282,0.26656592607275037,45.498289875111695,20.272980195908495
116,22.605,0.025035247420995062,0.26631678854389473,45.45912425793902,20.272980195908495
117,22.683,0.02055272558158457,0.26604480772206157,45.41984140844411,20.272980195908495
118,22.761,0.016074035716731817,0.26571497072502537,45.38055821709992,20.272980195908495
119,22.842,0.011429154450228738,0.2653961352350558,45.339813616031975,20.272980195908495
120,22.92,0.024300973361268956,0.26498551823514854,45.30047867053971,20.272980195908495
121,23.001,0.02896430570506788,0.26447376318477944,45.25950675973063,20.272980195908495
122,23.079,0.03344478751425735,0.2640638394305251,45.22016996268398,20.272980195908495
123,23.157,0.03793489080620997,0.263701628582552,45.18079800246994,20.272980195908495
124,23.235,0.04241680888259373,0.2633933737061018,45.14150401397471,20.272980195908495
125,23.313,0.046887475756758425,0.26311730100075603,45.10229529443673,20.272980195908495
126,23.394,0.05153041468681653,0.2628300866211836,45.06157627517496,20.272980195908495
127,23.475,0.05618401675438731,0.2624675772153625,45.02075558450996,20.272980195908495
128,23.559,0.06100500020059687,0.26222801630053716,44.97851035193528,20.272980195908495
129,23.64,0.0656724961891706,0.26203181465473635,44.937664588010875,20.272980195908495
130,23.718,0.07015585017818249,0.26185697384477796,44.89840736218301,20.272980195908495
131,23.799,0.07481273490084997,0.26160447484069366,44.85761211274571,20.272980195908495
132,23.88,0.07947612047622261,0.2612139441537362,44.81671456384502,20.272980195908495
133,23.958,0.0839455162456159,0.26076242908167446,44.77742288777961,20.272980195908495
134,24.036,0.08839938399639448,0.2602771638348021,44.73820749504173,20.272980195908495
135,24.117,0.09303363635038622,0.25978266622277457,44.69743249950089,20.272980195908495
136,24.198,0.09764672687080919,0.2592602114609363,44.656772568496095,20.272980195908495
137,24.279,0.10228558914130885,0.25883505137228413,44.61601200801971,20.272980195908495
138,24.357,0.10675483283118188,0.25841379433911993,44.57674011925281,20.272980195908495
139,24.438,0.11142453288636207,0.2581075072040849,44.535842412276125,20.272980195908495
140,24.519,0.1160878829515771,0.25773476928260164,44.49495437785583,20.272980195908495
141,24.6,0.1207711052052495,0.257433250031658,44.453972289817045,20.272980195908495
142,24.681,0.12545494804222826,0.25726779680540657,44.41302958975061,20.272980195908495
143,24.759,0.1299691551231702,0.25709612714130936,44.37357583145209,20.272980195908495
144,24.84,0.13464460031188505,0.25686172398495305,44.33266799081853,20.272980195908495
145,24.921,0.13930434035905404,0.25667368931009077,44.291873974221154,20.272980195908495
146,25.002,0.14395484668452807,0.2563787942494942,44.25110354540871,20.272980195908495
147,25.083,0.14858708485546837,0.2561033481754947,44.210457445871675,20.272980195908495
148,25.164,0.15322662232772027,0.2558695243994068,44.16977931099718,20.272980195908495
149,25.242,0.1576921897697019,0.2555823927601299,44.130598711292954,20.272980195908495
150,25.323,0.16232435953160768,0.25517050497594385,44.089888447414474,20.272980195908495
151,25.404,0.16696414756383,0.25462887728655137,44.049044752464624,20.272980195908495
152,25.482,0.17141714980927847,0.2540639597643079,44.00977517044526,20.272980195908495
153,25.56,0.17587055600749674,0.2533857183231927,43.970402774103746,20.272980195908495
154,25.641,0.1804995063731281,0.2526354238902883,43.92944344304617,20.272980195908495
155,25.722,0.18512026671766968,0.25174556348090765,43.888379781400545,20.272980195908495
156,25.8,0.18959734511778759,0.2509757997946612,43.84876409816157,20.272980195908495
157,25.878,0.19408948808690107,0.2501928725276944,43.80903904422059,20.272980195908495
158,25.956,0.19857131008371112,0.249452662441995,43.769424859842154,20.272980195908495
159,26.037,0.20323803730089035,0.2486483840768073,43.728170084060956,20.272980195908495
160,26.115,0.20774078308509142,0.24793084514560074,43.68844695434449,20.272980195908495
161,26.193,0.2122711939828576,0.2473249581531582,43.648652228174726,20.272980195908495
162,26.274,0.21697671044292316,0.24666157699930075,43.60729171199423,20.272980195908495
163,26.355,0.22165220960690246,0.24588532365697882,43.56601150172035,20.272980195908495
164,26.433,0.22617240541302866,0.24515401110520077,43.526164128704494,20.272980195908495
165,26.514,0.23087898108643917,0.2444590511631886,43.4847680349188,20.272980195908495
166,26.598,0.23573794852458785,0.24359718901784064,43.44183236827063,20.272980195908495
167,26.688,0.24089847942121256,0.24252529730067818,43.3959362504191,20.272980195908495
168,26.763,0.24517365307327754,0.24155151613528325,43.35773785151814,20.272980195908495
169,26.841,0.24960433097130083,0.24052914464900824,43.31809443952023,20.272980195908495
170,26.925,0.2544103898325426,0.23954902368399153,43.27534969203214,20.272980195908495
171,27.003,0.2588643666906725,0.23869040003071934,43.23577744925765,20.272980195908495
172,27.084,0.2634829681425472,0.2377761425061967,43.19469742473112,20.272980195908495
173,27.162,0.26791823000563564,0.23677083948922628,43.15504976815455,20.272980195908495
174,27.243,0.2725288643652028,0.23572656749278265,43.11384690243047,20.272980195908495
175,27.324,0.277145433476704,0.23472049600219438,43.07265999076741,20.272980195908495
176,27.402,0.2816029103013701,0.23376942665182215,43.032948056675494,20.272980195908495
177,27.483,0.2862085355530689,0.23273681993882298,42.991792877483924,20.272980195908495
178,27.564,0.29079627568035027,0.23163236549376998,42.95064507652837,20.272980195908495
179,27.642,0.29524251021499104,0.23066524470281718,42.910981843928106,20.272980195908495
180,27.723,0.2998278568075283,0.22958465641699677,42.86988433797029,20.272980195908495
181,27.801,0.3042258118677653,0.22850144526816432,42.830354305456794,20.272980195908495
182,27.882,0.3087781153310221,0.22733801522124253,42.78933572379823,20.272980195908495
183,27.96,0.3131521299307273,0.22611447415524685,42.74972547258862,20.272980195908495
184,28.041,0.3177184103406223,0.22488211081113724,42.708508271435285,20.272980195908495
185,28.122,0.3222726061641888,0.22360148342139313,42.66728358150034,20.272980195908495
186,28.2,0.3266799529757057,0.22246416887929477,42.62761059896303,20.272980195908495
187,28.284,0.3313937987608142,0.22113307254687675,42.58490938313631,20.272980195908495
188,28.362,0.33579269461021377,0.21997086830273926,42.54524848600804,20.272980195908495
189,28.44,0.3401858820942553,0.21886293052907152,42.50570978799372,20.272980195908495
190,28.524,0.34489029112722136,0.217643741029397,42.46325404675182,20.272980195908495
191,28.602,0.349255770615838,0.21653822010261767,42.423891064598266,20.272980195908495
192,28.683,0.35378455085652105,0.2153676070567677,42.383006848635496,20.272980195908495
193,28.764,0.35835385809219206,0.21433069993722248,42.34207235219658,20.272980195908495
194,28.845,0.36290966888938236,0.2131640435873161,42.30102690638608,20.272980195908495
195,28.926,0.3674993210051837,0.21211031455646467,42.2599415094577,20.272980195908495
196,29.004,0.37188266282070875,0.21101063493952496,42.220476812812144,20.272980195908495
197,29.085,0.3764519693817764,0.20999927198510573,42.179578075326134,20.272980195908495
198,29.163,0.380899274050085,0.20915665059199942,42.14006700113913,20.272980195908495
199,29.244,0.38551451547687293,0.2083785836350723,42.09916523868338,20.272980195908495
200,29.325,0.39012909199038626,0.2075338106345268,42.0581937398432,20.272980195908495
201,29.403,0.3945563286178011,0.2065957659223173,42.01868844745708,20.272980195908495
202,29.487,0.3993248653855105,0.20560509079724598,41.97616529190702,20.272980195908495
203,29.565,0.4037794932819757,0.20478683711184273,41.93663674753755,20.272980195908495
204,29.649,0.4085942826367955,0.2039413553350624,41.89399773803534,20.272980195908495
205,29.736,0.4135767260760277,0.20304877904858368,41.849844132400754,20.272980195908495
206,29.811,0.4178886764797496,0.2023735804718762,41.81177487958387,20.272980195908495
207,29.892,0.422554642034048,0.20170418548921396,41.770659548256546,20.272980195908495
208,29.97,0.4270355541634984,0.2010983070750711,41.73117879549959,20.272980195908495
209,30.048,0.4315169170259166,0.20041848514307642,41.69162798820765,20.272980195908495
210,30.129,0.43619251810675463,0.19977072243117863,41.65047092335532,20.272980195908495
211,30.207,0.44070679398158924,0.19915637430244743,41.6107712940856,20.272980195908495
212,30.288,0.44538961156723306,0.1985249161769471,41.56958260148536,20.272980195908495
213,30.369,0.45008282453725457,0.1978425622675472,41.528282822021175,20.272980195908495
214,30.447,0.4546005564384569,0.19711181589408938,41.48845159428347,20.272980195908495
215,30.531,0.4594295817695559,0.19622155972769703,41.44567215655643,20.272980195908495
216,30.609,0.46394508216517377,0.1955303029423153,41.40589433732375,20.272980195908495
217,30.69,0.4686340344046019,0.1948727721283201,41.36464401281035,20.272980195908495
218,30.771,0.47331705146958775,0.1942059821364932,41.323423008468936,20.272980195908495
219,30.849,0.47786112461956,0.1937028993128195,41.28362130227139,20.272980195908495
220,30.933,0.48272870320986827,0.19307818600945373,41.24086041262984,20.272980195908495
221,31.014,0.48741456963065133,0.19257093754931198,41.199748257943746,20.272980195908495
222,31.095,0.4920978640348106,0.1921674115684418,41.1587167095571,20.272980195908495
223,31.176,0.4968048163157235,0.19184244328724703,41.11757309634527,20.272980195908495
224,31.254,0.5013215788753608,0.19149084778168737,41.07803641764536,20.272980195908495
225,31.338,0.5061923314951134,0.19124750448594954,41.035471852356615,20.272980195908495
226,31.419,0.5109066587325133,0.19115851929862646,40.99434737436826,20.272980195908495
227,31.494,0.5152781060647449,0.19110257712867637,40.95623133055251,20.272980195908495
228,31.578,0.5201952449039464,0.19106085752594326,40.91340764038464,20.272980195908495
229,31.653,0.5245710764000402,0.19107435868923955,40.87526569541151,20.272980195908495
