,t,x,y,energy,sight
0,19.308,0.8184122810464174,0.6193693235843274,49.957182756790395,28.088826457061412
1,19.386,0.8225886803049349,0.6192014906833445,49.915826037963726,28.088826457061412
2,19.467,0.8269360466441664,0.6190349128694143,49.87281450978573,28.088826457061412
3,19.548,0.8312967597460463,0.6187566997908384,49.829681237432595,28.088826457061412
4,19.626,0.8355063253979209,0.6186065312945631,49.7881166906033,28.088826457061412
5,19.707,0.8398620440943088,0.61850188081982,49.74506407995875,28.088826457061412
6,19.785,0.8440611924468605,0.6184937590406631,49.70358329047685,28.088826457061412
7,19.869,0.8485648820015766,0.6185584277590858,49.65902696320282,28.088826457061412
8,19.95,0.8529179633769675,0.6184980600893502,49.61599659730828,28.088826457061412
9,20.031,0.8572564092471172,0.6183240364345006,49.573040249043466,28.088826457061412
10,20.112,0.8616073162378399,0.6181535840634331,49.53000511759879,28.088826457061412
11,20.196,0.8660996132097317,0.6180297218966148,49.48551374778149,28.088826457061412
12,20.274,0.8702774991521153,0.6180426321141865,49.4441689603312,28.088826457061412
13,20.355,0.8746229701610335,0.6180315227839578,49.40118988870315,28.088826457061412
14,20.436,0.8789518281869663,0.6179385629404999,49.358310843749955,28.088826457061412
15,20.523,0.8836056196364341,0.6179409811390277,49.31223505510733,28.088826457061412
16,20.601,0.8877592865424215,0.617851542416932,49.27103923518741,28.088826457061412
17,20.685,0.8922318435033055,0.6178300554391629,49.226684797496176,28.088826457061412
18,20.766,0.8965365418910899,0.6178189835683866,49.18396667040023,28.088826457061412
19,20.844,0.9006805431318339,0.6177171080702613,49.142830859538584,28.088826457061412
20,20.925,0.9049724500336547,0.6175148217165893,49.10016419666177,28.088826457061412
21,21.003,0.9090995930403103,0.6173117920200166,49.059112350031185,28.088826457061412
22,21.081,0.9132347324425556,0.6171823469260633,49.01802830452789,28.088826457061412
23,21.159,0.9173917020752821,0.6171768230374128,48.97681748563186,28.088826457061412
24,21.24,0.9216997066975328,0.6170422259723573,48.93406483614589,28.088826457061412
25,21.321,0.9259877873165999,0.6168872015413129,48.89143522533359,28.088826457061412
26,21.402,0.9302822887750022,0.6165981951584466,48.84872028252685,28.088826457061412
27,21.483,0.9345710965623264,0.6163591765860327,48.80606135324103,28.088826457061412
28,21.561,0.938699799528629,0.6160396856997639,48.764952468591694,28.088826457061412
29,21.642,0.9429995461993856,0.6159696460400126,48.72226247299431,28.088826457061412
30,21.723,0.9472992928701423,0.6158996063802614,48.679572477396924,28.088826457061412
31,21.804,0.951599039540899,0.6158295667205101,48.63688248179954,28.088826457061412
32,21.885,0.9558987862116556,0.615759527060759,48.594192486202154,28.088826457061412
33,21.966,0.9601985328824123,0.6156894874010077,58.55150249060477,28.088826457061412
34,22.047,0.9645099379504123,0.6155575731463196,58.508728619303476,28.088826457061412
35,22.128,0.9688029071557256,0.615366514436089,58.46605845372918,28.088826457061412
36,22.206,0.9729481980952498,0.615064737696616,58.424852193052836,28.088826457061412
37,22.29,0.9774131523045624,0.6147869405396268,58.380491488640644,28.088826457061412
38,22.368,0.9815704158361337,0.6144117910537783,58.339170701329834,28.088826457061412
39,22.446,0.9857093819461799,0.6140237364146166,58.29795895883759,28.088826457061412
40,22.527,0.9787292994456784,0.6136395779702944,58.255089233074756,28.088826457061412
41,22.605,0.9745627312175225,0.6133889799609208,58.213768819146374,28.088826457061412
42,22.683,0.970404870818166,0.6130143698793553,58.172444537336105,28.088826457061412
43,22.761,0.9662455867202986,0.612541930718959,58.13104775878441,28.088826457061412
44,22.842,0.9619497072728189,0.6119333963930587,58.08811168725784,28.088826457061412
45,22.92,0.957817666201743,0.6112247040264672,58.0466742973911,28.088826457061412
46,23.001,0.9534985798209619,0.6105385467475928,58.00351752860655,28.088826457061412
47,23.079,0.9493708090174616,0.6098099911872839,57.96208527104091,28.088826457061412
48,23.157,0.9452726464371329,0.6089844606378749,57.92072399076486,28.088826457061412
49,23.235,0.9411730372092026,0.6082000847119076,57.87940438085258,28.088826457061412
50,23.313,0.9370410894104257,0.607528700706965,57.83800690962338,28.088826457061412
51,23.394,0.9327573290953575,0.6067912241174377,57.79501956768806,28.088826457061412
52,23.475,0.9284578618089796,0.6060786809056158,57.751959687119175,28.088826457061412
53,23.559,0.9239864101060776,0.6054221080303734,57.70730579003008,28.088826457061412
54,23.64,0.919669754475659,0.6047345122662846,57.66416293853756,28.088826457061412
55,23.718,0.9155230065840927,0.6041127075442193,57.62272085415413,28.088826457061412
56,23.799,0.9112375880000967,0.6033789312955958,57.57972705973326,28.088826457061412
57,23.88,0.9069419586005685,0.6026043658192831,57.536623710276025,28.088826457061412
58,23.958,0.9028204981283577,0.6017514401133122,57.495081260397605,28.088826457061412
59,24.036,0.898693511590003,0.6008448386227383,57.453432556844,28.088826457061412
60,24.117,0.894405297451922,0.5999116728202891,57.41017771903136,28.088826457061412
61,24.198,0.8901229844065588,0.5989883429165732,57.366973118877624,28.088826457061412
62,24.279,0.8858427622765296,0.5980294443316929,57.32373271565351,28.088826457061412
63,24.357,0.8817473235800554,0.5970735650447857,57.282211255072326,28.088826457061412
64,24.438,0.8774681431718481,0.5961187222845244,57.23898302200509,28.088826457061412
65,24.519,0.8731539716829845,0.595272378971941,57.19567806683788,28.088826457061412
66,24.6,0.868835735439119,0.5943997800566417,57.15231478224479,28.088826457061412
67,24.681,0.8645272795819224,0.5934779368421065,57.10894859695858,28.088826457061412
68,24.759,0.8603977832799401,0.5925198535366867,57.06721164293,28.088826457061412
69,24.84,0.8561226060021554,0.5914708034923268,57.02387084556492,28.088826457061412
70,24.921,0.8518886024327971,0.590345528720162,56.980664575301496,28.088826457061412
71,25.002,0.8476301202362805,0.5892976387208071,56.93742931137031,28.088826457061412
72,25.083,0.8433979749574643,0.5881902851852064,56.894263787785654,28.088826457061412
73,25.164,0.8391500276976785,0.5871894052223483,56.85116451990303,28.088826457061412
74,25.242,0.835089477232797,0.5861424728113789,56.80972092576102,28.088826457061412
75,25.323,0.8308646395369566,0.585068363541114,56.76665383015202,28.088826457061412
76,25.404,0.8266703155929654,0.5839092127850837,56.72363594649795,28.088826457061412
77,25.482,0.8226474701768254,0.5827944382355652,56.682313296106926,28.088826457061412
78,25.56,0.8186049757746563,0.5817331699092144,56.64095843558831,28.088826457061412
79,25.641,0.8143748044089671,0.5807611872423908,56.59801188871155,28.088826457061412
80,25.722,0.8101700750306773,0.5797359214216314,56.55514521400183,28.088826457061412
81,25.8,0.8061509717590157,0.578632109486199,56.51386430954832,28.088826457061412
82,25.878,0.8021509138939189,0.5774488932186543,56.47256124747366,28.088826457061412
83,25.956,0.7981375461097632,0.5762932795030075,56.431225908408585,28.088826457061412
84,26.037,0.7939401290868656,0.575203308756395,56.38830352035226,28.088826457061412
85,26.115,0.7898762796181382,0.5742774468040728,56.347022231278665,28.088826457061412
86,26.193,0.7858218215206535,0.5733461679203817,56.30579180242709,28.088826457061412
87,26.274,0.7815953343336651,0.572412222906738,56.26292177992503,28.088826457061412
88,26.355,0.7773883398727973,0.5714000495496616,56.22006074126716,28.088826457061412
89,26.433,0.7733394937811167,0.5704456420655725,56.1788317451364,28.088826457061412
90,26.514,0.7691299305432717,0.569513373005911,56.13606979587424,28.088826457061412
91,26.598,0.7647569839796151,0.5684903025593226,56.09159747222624,28.088826457061412
92,26.688,0.7600415270741601,0.5675134072167927,56.04392443272065,28.088826457061412
93,26.763,0.7561276883804051,0.5666342387520918,56.00420726646304,28.088826457061412
94,26.841,0.7520565347585333,0.5657858682549624,55.9629859825693,28.088826457061412
95,26.925,0.7476601595595422,0.5648705437028709,55.91851608224495,28.088826457061412
96,27.003,0.7435714319704875,0.5640393243503878,55.877206764757915,28.088826457061412
97,27.084,0.7392976828608213,0.5632563353963351,55.83423155104871,28.088826457061412
98,27.162,0.7351946250795608,0.5624559322542961,55.79287081339618,28.088826457061412
99,27.243,0.7309551638175958,0.5615622587011668,55.74997401400565,28.088826457061412
100,27.324,0.7267063663346008,0.5606795855125708,55.70703315055805,28.088826457061412
101,27.402,0.7226228032644205,0.5597399299604352,55.66560917382045,28.088826457061412
102,27.483,0.7184176885797523,0.5586618511971069,55.622658098153224,28.088826457061412
103,27.564,0.7141755169513315,0.5576959669642623,55.5796453856218,28.088826457061412
104,27.642,0.7101291324535014,0.5566524148505307,55.53829498377793,28.088826457061412
105,27.723,0.7059236553218109,0.5556530945706067,55.4954625195045,28.088826457061412
106,27.801,0.7018608608693486,0.5546732563045723,55.454108937385314,28.088826457061412
107,27.882,0.697649179220724,0.5535500426073032,55.41104411232856,28.088826457061412
108,27.96,0.6935740137028874,0.5525096023160592,55.3695202423162,28.088826457061412
109,28.041,0.6893871777659727,0.5513410808633722,55.32653248562817,28.088826457061412
110,28.122,0.6852014260937479,0.5501673318951019,55.283542398221,28.088826457061412
111,28.2,0.6812077942740352,0.548946191867381,55.24220881072048,28.088826457061412
112,28.284,0.6769343529241578,0.5475241518318186,55.19765454584043,28.088826457061412
113,28.362,0.6729691917296512,0.5462298151821864,55.15635351904121,28.088826457061412
114,28.44,0.6689863533421789,0.5449405149024249,55.114954864704046,28.088826457061412
115,28.524,0.6647149279204647,0.5435191665596922,55.070414239503464,28.088826457061412
116,28.602,0.6607886215407873,0.5420921733487344,55.029071524911714,28.088826457061412
117,28.683,0.6567192955144875,0.5405556677224629,54.98606520365897,28.088826457061412
118,28.764,0.6526479282730476,0.5390560401802114,54.94312911758296,28.088826457061412
119,28.845,0.6485817109979269,0.5374920549594183,54.900078757680006,28.088826457061412
120,28.926,0.6444767062798019,0.5359919999224425,54.856939621705685,28.088826457061412
121,29.004,0.6404808162812784,0.5346321796794578,54.815319481533535,28.088826457061412
122,29.085,0.6363714007840876,0.5331551835196844,54.77220408967243,28.088826457061412
123,29.163,0.6324086769691157,0.5317796511868056,54.73075200213195,28.088826457061412
124,29.244,0.6282895430162239,0.5303825917488804,54.68774658154684,28.088826457061412
125,29.325,0.6241500930345163,0.5290769355850544,54.64479953032963,28.088826457061412
126,29.403,0.6201630498442977,0.5277828939127128,54.603365919805555,28.088826457061412
127,29.487,0.6158532543064037,0.5264520526871,54.55876836282299,28.088826457061412
128,29.565,0.6118912690030818,0.525105743382439,54.51738149845211,28.088826457061412
129,29.649,0.6076180720899008,0.5237139319299579,54.47288921930742,28.088826457061412
130,29.736,0.603137692455571,0.522375538943809,54.42667121684655,28.088826457061412
131,29.811,0.5993273675177403,0.5211098355260659,54.38693051966558,28.088826457061412
132,29.892,0.5952067129118616,0.5197963116370339,54.344082912677834,28.088826457061412
133,29.97,0.5912418939053934,0.5184653716696392,54.30271034136891,28.088826457061412
134,30.048,0.5872623714709965,0.5172220689386188,54.26142113971339,28.088826457061412
135,30.129,0.5830847143818246,0.5160269750892225,54.21844366879446,28.088826457061412
136,30.207,0.5790967759307379,0.5147798367489731,54.177095733917604,28.088826457061412
137,30.288,0.5749376826559843,0.5136160221856977,54.13428708622477,28.088826457061412
138,30.369,0.5707604123788272,0.5125249817213224,54.09148774992947,28.088826457061412
139,30.447,0.5667155935167083,0.5115208338381245,54.05020893334874,28.088826457061412
140,30.531,0.562316041908822,0.5105335377929019,54.00562178439896,28.088826457061412
141,30.609,0.558202512475457,0.5097376918759196,53.96420082035122,28.088826457061412
142,30.69,0.5539047098039844,0.5090124893019716,53.921138083791824,28.088826457061412
143,30.771,0.5496420853541817,0.508208822210803,53.87820868501652,28.088826457061412
144,30.849,0.5455552931602452,0.5073866925345806,53.83692303944406,28.088826457061412
145,30.933,0.5411643800302379,0.506530839413303,53.792562610192185,28.088826457061412
146,31.014,0.5369086605755372,0.505707930411388,53.749653521247616,28.088826457061412
147,31.095,0.5326444925303828,0.5049642421991813,53.70678294128998,28.088826457061412
148,31.176,0.52835203756079,0.5043262558948477,53.66384148483785,28.088826457061412
149,31.254,0.5242307837326747,0.5036353348398095,53.622491177565834,28.088826457061412
150,31.338,0.5197620726096078,0.503010633210299,53.57788357999798,28.088826457061412
151,31.419,0.5154881078838482,0.5022909633243926,53.534977169628604,28.088826457061412
152,31.494,0.5115422362060135,0.5016667099570757,53.495365100380724,28.088826457061412
153,31.578,0.5071045511085522,0.501056649773904,53.45096705605236,28.088826457061412
154,31.653,0.5031410385120821,0.5006217066298043,53.41140388562497,28.088826457061412
155,31.734,0.49884591646808385,0.5002441444057357,53.36864113603085,28.088826457061412
156,31.815,0.4945555766801343,0.4999070793431645,53.32593038598282,28.088826457061412
157,31.893,0.4904152157488446,0.4996442312670542,53.28477254240207,28.088826457061412
158,31.977,0.4859768976403404,0.49929508535864897,53.2405498080341,28.088826457061412
159,32.055,0.4818582905091027,0.49909189566823536,53.199552474451416,28.088826457061412
160,32.136,0.47756257386750256,0.4989406333172954,53.15687488276107,28.088826457061412
161,32.214,0.473444961479985,0.4987860692638527,53.11589741412342,28.088826457061412
162,32.295,0.46915939294503667,0.49866372337264286,53.07329063461644,28.088826457061412
163,32.376,0.4648605234758915,0.49849875568675595,53.030589653323396,28.088826457061412
164,32.454,0.46073444596330704,0.4982269362275635,52.9895193270083,28.088826457061412
165,32.538,0.45628687582017735,0.4978630122605471,52.9452300039911,28.088826457061412
166,32.616,0.4521563833502632,0.49743290421476083,52.90404572999963,28.088826457061412
167,32.7,0.44772709698237,0.4969371666897261,52.859791557356125,28.088826457061412
168,32.784,0.44329623437926113,0.4963943317386625,52.815492273901,28.088826457061412
169,32.862,0.43917197438832656,0.4960181264869698,52.7743812347116,28.088826457061412
170,32.94,0.43507102373575124,0.4955894290299424,52.733385944453254,28.088826457061412
171,33.018,0.43096095533969264,0.49516666455915503,52.69233652839736,28.088826457061412
172,33.099,0.4266819384609981,0.49474093991389145,52.64964764906766,28.088826457061412
173,33.18,0.42237860026193913,0.4944486578196498,52.60687486577977,28.088826457061412
174,33.258,0.41822555382341803,0.4941731819182321,52.565630770658956,28.088826457061412
175,33.339,0.4139251125660772,0.4939037364414755,52.52288601023379,28.088826457061412
176,33.417,0.4097936876220444,0.4937566388256821,52.48182194663003,28.088826457061412
177,33.498,0.40549191765453524,0.4936127134937065,52.43910724776089,28.088826457061412
178,33.579,0.40119430282842716,0.49342709385731365,52.39640890364068,28.088826457061412
179,33.663,0.39673615771199783,0.4931504099267511,52.35209213540297,28.088826457061412
180,33.744,0.39245386318172965,0.4929226658015823,52.30947875291422,28.088826457061412
181,33.825,0.3881536395673914,0.4927151886334541,52.266757340972525,28.088826457061412
182,33.906,0.3838610749828541,0.4924651454735588,52.224070392532084,28.088826457061412
183,33.987,0.37956224121301824,0.49222730438535744,52.18134781347147,28.088826457061412
184,34.068,0.3752476687984479,0.49194539031209167,52.13850770167966,28.088826457061412
185,34.146,0.3710736976749956,0.49166852348226453,52.09712939303295,28.088826457061412
186,34.227,0.3667432546658459,0.4912446523887504,52.05411414246918,28.088826457061412
187,34.308,0.36240640632948856,0.4907763093279267,52.01102896924159,28.088826457061412
188,34.392,0.357903060287348,0.49015974455721195,51.96620893639178,28.088826457061412
189,34.473,0.35353140440578695,0.48968926988840095,51.922900815963075,28.088826457061412
190,34.551,0.34932262571411743,0.4892597009622374,51.881218505450256,28.088826457061412
191,34.632,0.344958898276139,0.48884769077722207,51.83799847726802,28.088826457061412
192,34.713,0.3406021089818557,0.4883145126636165,51.79473903664458,28.088826457061412
193,34.794,0.3362372160838216,0.4877440664342588,51.75139820136238,28.088826457061412
194,34.875,0.33188195522513947,0.48710514253743636,51.70805822244279,28.088826457061412
195,34.956,0.3275420194812676,0.4863286527517047,51.664673601403265,28.088826457061412
196,35.037,0.3232309540683347,0.4854687827267091,51.6213713476157,28.088826457061412
197,35.121,0.3187223090290999,0.48469806856367087,51.576367721872614,28.088826457061412
198,35.199,0.3145767332983681,0.4838624700317989,51.53469624837448,28.088826457061412
199,35.28,0.3102765738150164,0.48292542110188535,51.491361423083504,28.088826457061412
200,35.361,0.3060046766739734,0.48188858380859567,51.44805955124587,28.088826457061412
201,35.439,0.3018807332771226,0.480961064818923,51.40640081008806,28.088826457061412
202,35.526,0.29728938549171746,0.4798302513012402,51.35984655139103,28.088826457061412
203,35.616,0.29252097197841703,0.4787672949105673,51.31172636109369,28.088826457061412
204,35.697,0.28822106508661094,0.4778371225340007,51.26840245333329,28.088826457061412
205,35.781,0.2837525970522791,0.4769563623120507,51.223524279461216,28.088826457061412
206,35.865,0.27930402730109694,0.4760516536948212,51.17874088351486,28.088826457061412
207,35.943,0.27514382889736877,0.47533044425350574,51.137112294701424,28.088826457061412
208,36.024,0.27085586449116505,0.47446958674196377,51.093953773186286,28.088826457061412
209,36.105,0.2665738988113954,0.4736426075460133,51.050874817189026,28.088826457061412
210,36.186,0.2622855012065599,0.47274487813609484,51.0076661785556,28.088826457061412
211,36.27,0.2578367443269986,0.47187798333443787,50.962928867737155,28.088826457061412
212,36.351,0.2535447614919596,0.4710220433747493,50.91975130318991,28.088826457061412
213,36.429,0.24940506500229298,0.4701981847200683,50.87813147981358,28.088826457061412
214,36.51,0.24512765889716753,0.4692308283192778,50.83489677239227,28.088826457061412
215,36.591,0.24087773852496147,0.46812966558979446,50.79163114235379,28.088826457061412
216,36.672,0.23665671306805042,0.4668938779458486,50.74831464967072,28.088826457061412
217,36.753,0.23246678498911275,0.46558601365923413,50.7050551256129,28.088826457061412
218,36.834,0.22831064953736718,0.4641901025482988,50.66182768075913,28.088826457061412
219,36.915,0.2241461681587984,0.4628633892500907,50.61868719432274,28.088826457061412
220,36.996,0.21995602979575796,0.46158021245398373,50.57547305650105,28.088826457061412
221,37.08,0.2155836065668367,0.46037923015200893,50.530723393613776,28.088826457061412
222,37.161,0.21139230135740728,0.45917106757745857,50.48763888250272,28.088826457061412
223,37.239,0.20735133126630007,0.4580988723617909,50.446275608552405,28.088826457061412
224,37.32,0.2031724696347438,0.45685399957890915,50.40320144581534,28.088826457061412
225,37.401,0.19897237626417966,0.4556552601174687,50.36007949815006,28.088826457061412
226,37.482,0.19480154003212632,0.45442604907883083,50.317083058183385,28.088826457061412
227,37.563,0.19061382465014162,0.45332423185767656,50.27420156856895,28.088826457061412
228,37.644,0.18641467027221792,0.45225450035125714,50.231300678644615,28.088826457061412
229,37.725,0.18220753764126443,0.4512165861491555,50.18839978290119,28.088826457061412
230,37.806,0.17801185324806995,0.45019427636559567,50.14559382967136,28.088826457061412
231,37.887,0.1738263410193986,0.44913237200184364,50.10278990045364,28.088826457061412
232,37.968,0.16962190833969348,0.44818796560979524,50.06004308910492,28.088826457061412
