,t,x,y,energy,sight
0,54.699,0.2578779626174595,0.31712104988418266,49.91024541775481,95.68341224574459
1,54.792,0.25349685312243836,0.3189514983033861,49.820533721837016,95.68341224574459
2,54.882,0.24923573516327163,0.32072393568888297,49.73358737248639,95.68341224574459
3,54.975,0.24479184943825244,0.32251974263840216,49.643588327414164,95.68341224574459
4,55.065,0.24044572734165692,0.3241911139801359,49.556377183666044,95.68341224574459
5,55.155,0.2361087514636439,0.32586168656500253,49.46922250542935,95.68341224574459
6,55.248,0.2316046831969348,0.3274683523839976,49.3792936672924,95.68341224574459
7,55.344,0.22694854551385105,0.32905896565177606,49.2865661575487,95.68341224574459
8,55.434,0.2226061955913345,0.3306580824363968,49.1995405105304,95.68341224574459
9,55.53,0.21799465300016715,0.3323952392593034,49.10676467027493,95.68341224574459
10,55.62,0.21368626451678358,0.33405184735926585,49.01981284288503,95.68341224574459
11,55.713,0.20926318464802846,0.3358146365610807,48.93001607902604,95.68341224574459
12,55.806,0.2048428345003094,0.33763453989069625,48.84009825903236,95.68341224574459
13,55.893,0.20075595787395165,0.33944963851890364,48.75598225377201,95.68341224574459
14,55.989,0.19620649391662232,0.3413469239842781,48.663197794011516,95.68341224574459
15,56.082,0.1918198244578931,0.34326576326533426,48.573230965886836,95.68341224574459
16,56.175,0.18739027604223932,0.34510802992669426,48.48320402446199,95.68341224574459
17,56.265,0.18310065535404735,0.34684581707170825,48.39617314133607,95.68341224574459
18,56.358,0.17870165310678904,0.34875329218466206,48.306162989360324,95.68341224574459
19,56.448,0.1744454132624533,0.35064745277538156,48.218937305790995,95.68341224574459
20,56.544,0.1699677700839305,0.3528027167475275,48.1258960743543,95.68341224574459
21,56.634,0.16584113383975313,0.35492784050141163,48.03877921679442,95.68341224574459
22,56.73,0.16153372339461305,0.35732010001851433,47.94600814880306,95.68341224574459
23,56.823,0.15733569725377883,0.35955559091938427,47.85624515379733,95.68341224574459
24,56.913,0.15324364215428293,0.36165344942601435,47.769404899208226,95.68341224574459
25,57.003,0.14911647524079147,0.36368360001364725,47.68255831770633,95.68341224574459
26,57.093,0.14493564559418412,0.3656522962137615,47.59557285915796,95.68341224574459
27,57.189,0.1405395736895286,0.36785231886308944,47.50287405704571,95.68341224574459
28,57.279,0.1363789434499894,0.3698875774626483,47.415820800374966,95.68341224574459
29,57.378,0.13183300354634672,0.37218330237271446,47.32007626145291,95.68341224574459
30,57.471,0.12755003367376044,0.37433275962366275,47.230083256112785,95.68341224574459
31,57.561,0.12341372653498925,0.37644382293340123,47.14295237429184,95.68341224574459
32,57.651,0.1192200190467918,0.3784591601907419,47.05576425638261,95.68341224574459
33,57.747,0.11477344472580378,0.38070945832767294,46.96263209199761,95.68341224574459
34,57.837,0.11064619310800787,0.38286655581573925,46.87541750130431,95.68341224574459
35,57.93,0.10640710820598558,0.3851222768796763,46.785361709202455,95.68341224574459
36,58.023,0.10222084310921176,0.38742610151311013,46.69545669111086,95.68341224574459
37,58.119,0.09790276189925858,0.38983562359247664,46.60257221520219,95.68341224574459
38,58.212,0.0936934419968976,0.3921027187054871,46.51265001039558,95.68341224574459
39,58.302,0.0896198233041233,0.39431407924162437,46.42557509338241,95.68341224574459
40,58.398,0.08529143362663946,0.3966642134059709,46.33281610939695,95.68341224574459
41,58.491,0.08116098558153075,0.399075693721861,46.24288203053456,95.68341224574459
42,58.584,0.07705489278606836,0.4014977009594899,46.153048287794014,95.68341224574459
43,58.677,0.07289195136905288,0.40384102840416036,46.06315074345316,95.68341224574459
44,58.77,0.06866334100420313,0.4061039501971021,45.973132397897565,95.68341224574459
45,58.86,0.06459937653767592,0.4082996977038717,45.886159397354035,95.68341224574459
46,58.956,0.06031029257190611,0.410763870577244,45.79326407261312,95.68341224574459
47,59.046,0.05634180488495956,0.41316110065639233,45.7061814782691,95.68341224574459
48,59.142,0.052174486715235266,0.41582838459268245,45.61327803248008,95.68341224574459
49,59.235,0.04810956940905883,0.4183827618882635,45.52322872001474,95.68341224574459
50,59.328,0.04398939258615718,0.4208455278859877,45.433184288823036,95.68341224574459
51,59.421,0.03987595801605957,0.4232942833685459,45.34322285183181,95.68341224574459
52,59.514,0.03584109474695033,0.42585364296419986,45.253319159930996,95.68341224574459
53,59.607,0.03175358644594473,0.4283000841755027,45.16350779052256,95.68341224574459
54,59.703,0.027577004271335664,0.4309410310003054,45.07064479597262,95.68341224574459
55,59.799,0.02342763441238559,0.43361380324365006,44.97781903120074,95.68341224574459
56,59.889,0.019506550482003792,0.4360927453298621,44.89071956868274,95.68341224574459
57,59.982,0.015470202471250966,0.4386973651879115,44.80065176262362,95.68341224574459
58,60.075,0.0197445165701793,0.4414126795880672,44.71057344693695,95.68341224574459
59,60.165,0.023525181190183892,0.4441108669715594,44.62343704260557,95.68341224574459
60,60.255,0.02725529623954078,0.4468847070699192,44.536277011792684,95.68341224574459
61,60.348,0.031108040594470483,0.44976449916253697,44.44616880285798,95.68341224574459
62,60.444,0.035089113174716094,0.45274367821456335,44.353108261770466,95.68341224574459
63,60.543,0.03916752500995026,0.4558094415520523,44.25730319046257,95.68341224574459
64,60.633,0.042792283457391125,0.45869287212790466,44.17024998620864,95.68341224574459
65,60.726,0.04660865863873505,0.4615719146907765,44.08033078589183,95.68341224574459
66,60.819,0.050522392596580534,0.4643452640028235,43.990307890755375,95.68341224574459
67,60.912,0.054471487662146864,0.4671086716583727,43.90013659096158,95.68341224574459
68,61.005,0.05835025926516835,0.4699590779318692,43.81000653997266,95.68341224574459
69,61.098,0.06228863413890723,0.47269750722313475,43.71998296989956,95.68341224574459
70,61.191,0.06625269260981478,0.475402054619559,43.62994703117138,95.68341224574459
71,61.281,0.06999472111199806,0.47812281436707105,43.54292682450198,95.68341224574459
72,61.377,0.07392473069992221,0.48110371006841557,43.45012068922122,95.68341224574459
73,61.467,0.0775350969894204,0.4839966768797609,43.36310138807901,95.68341224574459
74,61.557,0.08121900494158615,0.48681080604503324,43.27602231797915,95.68341224574459
75,61.653,0.08515962851449169,0.4897720076558783,43.18323791360277,95.68341224574459
76,61.746,0.08891345573632317,0.4927310237347422,43.093323138633174,95.68341224574459
77,61.836,0.09262263633069431,0.4954746051381712,43.00638608274827,95.68341224574459
78,61.932,0.0965628619561622,0.49841130149131774,42.913697687497695,95.68341224574459
79,62.022,0.10030426262969638,0.5010913839183775,42.826833090134784,95.68341224574459
80,62.115,0.10410638484093271,0.503961975683403,42.73701928125297,95.68341224574459
81,62.208,0.10795976084883588,0.506746022303652,42.64727070189703,95.68341224574459
82,62.298,0.11163763701871751,0.5094723612151206,42.560560327105186,95.68341224574459
83,62.391,0.11544196004990259,0.5123017501707494,42.470893378223046,95.68341224574459
84,62.487,0.11939032507915985,0.5151690528152055,42.378426216852276,95.68341224574459
85,62.58,0.12327757029364153,0.5178629493549864,42.28883398294881,95.68341224574459
86,62.673,0.12708467365353332,0.5206349442295927,42.199370417737974,95.68341224574459
87,62.766,0.1314178399158538,0.5187905847958514,42.10990685252714,95.68341224574459
88,62.856,0.13561122662132521,0.5170057208277148,42.02332920877472,95.68341224574459
89,62.949,0.13994439288364569,0.5151613613939735,41.933865643563884,95.68341224574459
90,63.039,0.1441377795891171,0.5133764974258368,41.84728799981146,95.68341224574459
91,63.135,0.14861072540828663,0.511472642526491,41.754938513142214,95.68341224574459
92,63.225,0.15280411211375805,0.5096877785583545,41.668360869389794,95.68341224574459
93,63.318,0.15713727837607852,0.5078434191246133,41.57889730417896,95.68341224574459
94,63.408,0.16133066508154995,0.5060585551564766,41.49231966042654,95.68341224574459
95,63.501,0.1656638313438704,0.5042141957227353,41.402856095215704,95.68341224574459
96,63.597,0.1701367771630399,0.5023103408233895,41.310506608546454,95.68341224574459
97,63.687,0.17433016386851133,0.500525476855253,41.223928964794034,95.68341224574459
98,63.78,0.1786633301308318,0.49868111742151167,41.1344653995832,95.68341224574459
99,63.873,0.18299649639315227,0.4968367579877705,51.045001834372364,95.68341224574459
100,63.966,0.18735302707162643,0.4950175820284103,50.95546309537709,95.68341224574459
101,64.056,0.19152555345018096,0.4931937424275155,50.868909239023964,95.68341224574459
102,64.149,0.19580296486330678,0.49129018314388906,50.779621637691825,95.68341224574459
103,64.239,0.1999820458034421,0.4895607509307703,50.69326571743456,95.68341224574459
104,64.332,0.20435468372458981,0.48787712816832274,50.603954366291795,95.68341224574459
105,64.425,0.20876173876887139,0.4862882148378742,50.514648320937624,95.68341224574459
106,64.518,0.21318607573078477,0.48469313420686744,50.4252248400794,95.68341224574459
107,64.611,0.21761652252514288,0.48304510801111666,50.335648107765486,95.68341224574459
108,64.698,0.22176149175865664,0.4814987787007077,50.2518380358725,95.68341224574459
109,64.794,0.22630011872126002,0.4797091084924198,50.15937674871745,95.68341224574459
110,64.887,0.23072092912385433,0.47803949888080793,50.069809284196246,95.68341224574459
111,64.983,0.23524413995922386,0.47623741695716815,49.977410448548625,95.68341224574459
112,65.076,0.23960886608908796,0.47447000750845164,49.88794920814981,95.68341224574459
113,65.169,0.24391662605383096,0.4725952697922583,49.79855813356708,95.68341224574459
114,65.262,0.24820289883702534,0.47063049941742163,49.70905758184782,95.68341224574459
115,65.352,0.2523990496291528,0.4688238011272278,49.62240868066071,95.68341224574459
116,65.445,0.25679576663088377,0.4670781216789184,49.53280916513463,95.68341224574459
117,65.541,0.2613841680834267,0.4653630206631111,49.440221579148506,95.68341224574459
118,65.64,0.2660980255686878,0.4634826153217403,49.34459005312978,95.68341224574459
119,65.739,0.2708758590232458,0.46169833618560185,49.24879815741604,95.68341224574459
120,65.832,0.27539986599688926,0.4600655137357704,49.15869267175875,95.68341224574459
121,65.922,0.2797794817472704,0.4585305179589609,49.071581351668506,95.68341224574459
122,66.015,0.2843416685710102,0.4569916559481239,48.98144335083,95.68341224574459
123,66.105,0.28874471515353106,0.45546914711023023,48.89421668474321,95.68341224574459
124,66.201,0.2934429414082723,0.45387156072924995,48.8012198129517,95.68341224574459
125,66.294,0.2980542216061203,0.45243627267616293,48.71098737249208,95.68341224574459
126,66.387,0.30269479334133825,0.45111330784646775,48.62078066133413,95.68341224574459
127,66.48,0.3073407098899819,0.44973013070357304,48.530433300014266,95.68341224574459
128,66.576,0.3121260224820765,0.44819678030116394,48.43703607215866,95.68341224574459
129,66.675,0.31702601318410634,0.4465390980442483,48.3407791251276,95.68341224574459
130,66.765,0.3215306409171421,0.4451299254813052,48.25316172976998,95.68341224574459
131,66.852,0.32589309289475366,0.44375319845673006,48.16838833080098,95.68341224574459
132,66.945,0.3305371167742182,0.442209940060144,48.0777447360427,95.68341224574459
133,67.038,0.33514948566280717,0.4405890752396163,47.987132187222116,95.68341224574459
134,67.131,0.3397673945369469,0.43905329754750744,47.896662297430545,95.68341224574459
135,67.224,0.3444074092483587,0.4375212018851755,47.80606552447052,95.68341224574459
136,67.32,0.34922829719728204,0.43603433306842804,47.71254032172756,95.68341224574459
137,67.413,0.35387722215420464,0.4344903867992634,47.62186557176805,95.68341224574459
138,67.503,0.35834741559091954,0.4329563264016347,47.534208518644036,95.68341224574459
139,67.599,0.3631339100279555,0.43136804288222813,47.44069509434414,95.68341224574459
140,67.692,0.3678165047936416,0.4299546801200657,47.350067403956245,95.68341224574459
141,67.785,0.3724989035999525,0.42848762309623495,47.25933988881674,95.68341224574459
142,67.878,0.3771473228951421,0.42688406348605057,47.16854586576092,95.68341224574459
143,67.968,0.3816357705157936,0.4252363571792829,47.080535318762976,95.68341224574459
144,68.061,0.3862943130028522,0.4236532510061174,46.98972240432563,95.68341224574459
145,68.154,0.3909105445079849,0.4219489696830844,46.898905636691715,95.68341224574459
146,68.247,0.39552658664945456,0.4202418231818448,46.80808365010554,95.68341224574459
147,68.34,0.4001021994854807,0.4184714171073301,46.717360403188174,95.68341224574459
148,68.43,0.40447831601849227,0.41665576343943755,46.629628270152644,95.68341224574459
149,68.529,0.4093633236427829,0.4147947233581223,46.53302120985321,95.68341224574459
150,68.622,0.41398274706150484,0.4131846445795276,46.442388849685784,95.68341224574459
151,68.727,0.4191544107059359,0.4112474644937988,46.34006601767351,95.68341224574459
152,68.817,0.42353392817790236,0.4094553660981014,46.25237119335422,95.68341224574459
153,68.91,0.4280391861258443,0.40757768833756725,46.16180982388024,95.68341224574459
154,69.003,0.43258156280846627,0.4057359386458163,46.07111616514328,95.68341224574459
155,69.093,0.43697081916795383,0.403967890463675,45.98342149242784,95.68341224574459
156,69.186,0.4414981505821278,0.40211487899440235,45.89278981593812,95.68341224574459
157,69.282,0.44609977419850794,0.4000967585597578,45.79939426300157,95.68341224574459
158,69.375,0.4506014335336648,0.3981987142740716,45.70880374130858,95.68341224574459
159,69.465,0.4549916877708425,0.3965002930742765,45.62126677440861,95.68341224574459
160,69.555,0.4593629995496566,0.39479129223437437,45.53381825323088,95.68341224574459
161,69.648,0.46391499785571993,0.3931394324943013,45.443502852895946,95.68341224574459
162,69.747,0.468750231238025,0.3913879568584513,45.34743865430074,95.68341224574459
163,69.834,0.47301740302543116,0.38991684201474824,45.26305498777878,95.68341224574459
164,69.927,0.47764267689469697,0.3884798006033089,45.17273369531524,95.68341224574459
165,70.02,0.4822147264789158,0.38691806262930883,45.08248886278989,95.68341224574459
166,70.113,0.48674153460443603,0.3852643457718819,44.99232088435348,95.68341224574459
167,70.203,0.4911075291008313,0.3835913828668799,44.90498735463393,95.68341224574459
168,70.293,0.4954502583446595,0.38179839875355837,44.81750814204406,95.68341224574459
169,70.389,0.5001053033600046,0.379921520673853,44.72414803964744,95.68341224574459
170,70.485,0.5047609756914859,0.3780479249472998,44.63079206225192,95.68341224574459
171,70.581,0.5094016864752784,0.3761944176703628,44.537572804633534,95.68341224574459
172,70.677,0.5140900054490553,0.37441883215431465,44.4442503889876,95.68341224574459
173,70.77,0.5185981909359346,0.3726546578702116,44.353943766866806,95.68341224574459
174,70.866,0.5232123756519835,0.3707107652961096,44.26066198571089,95.68341224574459
175,70.962,0.5278811034641515,0.3688339480352637,44.16722079494792,95.68341224574459
176,71.058,0.5324975685450577,0.3668714885245344,44.07387926240263,95.68341224574459
177,71.154,0.5371290984455022,0.36500143498324716,43.98067506731795,95.68341224574459
178,71.25,0.5417687458622672,0.3631352056680207,43.887431834409526,95.68341224574459
179,71.343,0.5462702669852166,0.3613318678534337,43.797072592743625,95.68341224574459
180,71.439,0.5509097337014756,0.35939741819550297,43.70366494386814,95.68341224574459
181,71.538,0.5556644519634438,0.3572871455023984,43.60722121937407,95.68341224574459
182,71.631,0.5601356988203157,0.35534073689989637,43.516687705178924,95.68341224574459
183,71.73,0.5648875005235439,0.35321387914387375,43.42021781831438,95.68341224574459
184,71.826,0.5694583365501834,0.3510506283854047,43.32661630091769,95.68341224574459
185,71.922,0.5739708286442371,0.34881745806598474,43.23315592789305,95.68341224574459
186,72.018,0.5784038976012782,0.34648210875603447,43.13985080341817,95.68341224574459
187,72.114,0.5828517085845661,0.3442165024217432,43.04666722827391,95.68341224574459
188,72.207,0.5870993691271541,0.3419225230469633,42.95644737665651,95.68341224574459
189,72.303,0.5915360483226569,0.3396484186805403,42.8633024958293,95.68341224574459
190,72.399,0.5959694071194696,0.33741831743020884,42.77030407023871,95.68341224574459
191,72.495,0.6004063558568935,0.3351986879955593,42.67731515895477,95.68341224574459
192,72.591,0.6047875566085326,0.3329031765156068,42.58442248424074,95.68341224574459
193,72.687,0.609212598677567,0.33067835765886194,42.491486800229325,95.68341224574459
194,72.786,0.613786914874767,0.3284191927999991,42.39568433396628,95.68341224574459
195,72.879,0.6181162701706657,0.32636321558672576,42.30568708045634,95.68341224574459
196,72.975,0.6226060491772736,0.32425433154939143,42.21270317580876,95.68341224574459
197,73.071,0.6270263606875355,0.32201933682575534,42.119765205359414,95.68341224574459
198,73.167,0.6314408224582845,0.31982729209852623,42.02698384992752,95.68341224574459
199,73.263,0.6359069211347672,0.317767521413615,41.9342699851647,95.68341224574459
200,73.356,0.6402911444739484,0.31588898887586947,41.844420014673325,95.68341224574459
201,73.449,0.6446724787280258,0.3139456640373933,41.754421264473415,95.68341224574459
202,73.545,0.6492771181277238,0.3120699760886439,41.661363000004,95.68341224574459
203,73.641,0.6538655163588178,0.3101076704335719,41.56818708845207,95.68341224574459
204,73.737,0.6584909797447904,0.30819663027835753,41.47491964768444,95.68341224574459
205,73.833,0.6630489574258621,0.30616940422935834,41.38175607313247,95.68341224574459
206,73.929,0.6676571046563533,0.30428842509185994,41.28866423409941,95.68341224574459
207,74.022,0.6720826779768372,0.3023539680004305,41.19842923175515,95.68341224574459
208,74.121,0.6767758177628009,0.30022277031287137,41.10229019023118,95.68341224574459
209,74.214,0.6811252904787789,0.2981120289519609,41.012025177052784,95.68341224574459
210,74.31,0.6855679622834415,0.2958591227811747,40.918907749907014,95.68341224574459
211,74.403,0.6898771251064316,0.2936954904258227,40.828724226314556,95.68341224574459
212,74.502,0.6944184367794424,0.29130874783289007,40.73273920818357,95.68341224574459
213,74.598,0.6988526541229176,0.28908509646659053,40.639754399467805,95.68341224574459
214,74.697,0.7034377394335712,0.2867858838582097,40.54377603486284,95.68341224574459
215,74.793,0.707896945016504,0.2845937940455742,40.45073781662784,95.68341224574459
216,74.886,0.7121613785194415,0.28234771681769855,40.360567524461146,95.68341224574459
217,74.982,0.7165451202344204,0.2799708460774486,40.267415562837506,95.68341224574459
218,75.075,0.7208208239721989,0.2777728272505277,40.17732326618072,95.68341224574459
219,75.171,0.7252009074587868,0.2754724231025535,40.084422377567286,95.68341224574459
220,75.267,0.7296251807243921,0.2732175119958574,39.99140410031241,95.68341224574459
221,75.363,0.7340264761708107,0.27094623082481,39.89846886630262,95.68341224574459
222,75.456,0.7382907327454036,0.26875853112911735,39.808471910235404,95.68341224574459
223,75.552,0.7426677693144678,0.2664970845160766,39.71570350543882,95.68341224574459
224,75.648,0.7470390098459899,0.2642007924012683,39.622864958274086,95.68341224574459
225,75.744,0.7513338329955076,0.26178099225089146,39.53007814580105,95.68341224574459
226,75.843,0.7558471825921986,0.2594151465356356,39.434313739556444,95.68341224574459
227,75.939,0.7602183931552491,0.2571217142381087,39.341483869895086,95.68341224574459
228,76.035,0.7646080575347243,0.2549072946836475,39.24878034253594,95.68341224574459
229,76.131,0.7689654547830288,0.25261439138628583,39.1560303073332,95.68341224574459
230,76.221,0.7730174848367011,0.2504279833724384,39.06915291438402,95.68341224574459
231,76.317,0.7773924207926651,0.2482092173205416,38.976520945593464,95.68341224574459
232,76.413,0.7818217700136121,0.24608756435638748,38.883851451473156,95.68341224574459
