,t,x,y,energy,sight
0,70.389,0.8071901535212129,0.9672692133228138,49.90967548170378,94.88176470151971
1,70.485,0.811827398293279,0.9674552639701179,49.81924890886877,94.88176470151971
2,70.581,0.816474725254497,0.9677359707366259,49.72872747971275,94.88176470151971
3,70.677,0.8211381001161195,0.9681111528567985,49.638061116595516,94.88176470151971
4,70.77,0.8256369222443227,0.9685956562337878,49.5502754697916,94.88176470151971
5,70.866,0.8302759455936657,0.9691593693925821,49.459642994599236,94.88176470151971
6,70.962,0.834904907882876,0.9698586814697299,49.36895714242634,94.88176470151971
7,71.058,0.8395380781207544,0.9705928992117101,49.278210507737924,94.88176470151971
8,71.154,0.8441416581985614,0.9713574962981543,49.18761966220465,94.88176470151971
9,71.25,0.8487199755570781,0.9722514927692325,49.09704070850113,94.88176470151971
10,71.343,0.8531896857827169,0.9730300249784298,49.00917717707385,94.88176470151971
11,71.439,0.8578728872528456,0.9729913868435928,48.91847933818117,94.88176470151971
12,71.538,0.862702438768916,0.972951541267042,48.8249471918231,94.88176470151971
13,71.631,0.8672392901931032,0.9729141105739185,48.73708366039582,94.88176470151971
14,71.73,0.8720688417091734,0.9728742649973677,48.643551514037746,94.88176470151971
15,71.826,0.8767520431793022,0.9728356268625307,48.552853675145066,94.88176470151971
16,71.922,0.8814352446494309,0.9727969887276935,48.462155836252386,94.88176470151971
17,72.018,0.8861184461195597,0.9727583505928564,48.371457997359705,94.88176470151971
18,72.114,0.8908016475896885,0.9727197124580191,48.280760158467025,94.88176470151971
19,72.207,0.8953384990138756,0.9726822817648957,48.192896627039744,94.88176470151971
20,72.303,0.9000217004840044,0.9726436436300586,48.102198788147064,94.88176470151971
21,72.399,0.9047049019541331,0.9726050054952214,48.01150094925438,94.88176470151971
22,72.495,0.9093881034242619,0.9725663673603844,47.9208031103617,94.88176470151971
23,72.591,0.9140713048943907,0.9725277292255472,47.83010527146902,94.88176470151971
24,72.687,0.9187545063645194,0.9724890910907101,47.73940743257634,94.88176470151971
25,72.786,0.9235840578805897,0.9724492455141593,47.64587528621827,94.88176470151971
26,72.879,0.9281209093047769,0.9724118148210359,47.55801175479099,94.88176470151971
27,72.975,0.9328041107749057,0.9723731766861986,47.46731391589831,94.88176470151971
28,73.071,0.9374873122450345,0.9723345385513615,47.37661607700563,94.88176470151971
29,73.167,0.9421705137151631,0.9722959004165244,47.28591823811295,94.88176470151971
30,73.263,0.9468537151852919,0.9722572622816873,47.19522039922027,94.88176470151971
31,73.356,0.9513905666094791,0.9722198315885638,47.10735686779299,94.88176470151971
32,73.449,0.9559274180336663,0.9721824008954403,47.019493336365706,94.88176470151971
33,73.545,0.9606106195037951,0.9721437627606031,46.928795497473025,94.88176470151971
34,73.641,0.9652938209739238,0.972105124625766,46.838097658580345,94.88176470151971
35,73.737,0.9699770224440526,0.9720664864909289,46.747399819687665,94.88176470151971
36,73.833,0.9746602239141813,0.9720278483560918,46.656701980794985,94.88176470151971
37,73.929,0.9793434253843101,0.9719892102212546,56.566004141902305,94.88176470151971
38,74.022,0.9838661811118847,0.9719962620042667,56.478231775946945,94.88176470151971
39,74.121,0.9886561751513614,0.9720077026724997,56.38495376194988,94.88176470151971
40,74.214,0.9755952058635021,0.9720937401697165,56.29733064123042,94.88176470151971
41,74.31,0.970933750789403,0.9722111532772064,56.20676353713306,94.88176470151971
42,74.403,0.9664206379079727,0.9724509891828242,56.119012164170066,94.88176470151971
43,74.502,0.9616100909359014,0.9725909237468547,56.02558967576685,94.88176470151971
44,74.598,0.95692024019718,0.9726765188094237,55.934845302985885,94.88176470151971
45,74.697,0.9520690338519016,0.9728032044303401,55.841165032916976,94.88176470151971
46,74.793,0.9473792226195101,0.9728903032983561,55.7504207357646,94.88176470151971
47,74.886,0.9428372296908814,0.9729923570080306,55.66251795011264,94.88176470151971
48,74.982,0.9381369876090666,0.9732058623214517,55.571681052702885,94.88176470151971
49,75.075,0.9335767705965848,0.9734243153357409,55.48363550156549,94.88176470151971
50,75.171,0.9288799966219914,0.9735745723695226,55.392836440400245,94.88176470151971
51,75.267,0.9241971903220669,0.9738115918166542,55.30210378579016,94.88176470151971
52,75.363,0.9194910715036297,0.973955759426129,55.21124616664372,94.88176470151971
53,75.456,0.9149134088799998,0.9740018551803675,55.123120946427775,94.88176470151971
54,75.552,0.9101896834329241,0.9739638186694866,55.03216379408179,94.88176470151971
55,75.648,0.9054730194575729,0.9738479959051279,54.941243715313426,94.88176470151971
56,75.744,0.9007337163313853,0.973682350503583,54.85016932501394,94.88176470151971
57,75.843,0.8958300958920494,0.97337953680779,54.75610440746196,94.88176470151971
58,75.939,0.8910504245812986,0.9731974335794058,54.66476798796375,94.88176470151971
59,76.035,0.8862647377818806,0.972896242601846,54.57335466477093,94.88176470151971
60,76.131,0.8814732279196977,0.9724734997589888,54.481845551491304,94.88176470151971
61,76.221,0.8770095606361131,0.9719964383121573,54.39618632792292,94.88176470151971
62,76.317,0.872256345263002,0.9713752647345011,54.30478275021241,94.88176470151971
63,76.413,0.8674826727889074,0.970738072711954,54.21323594999719,94.88176470151971
64,76.509,0.8627076296201107,0.9701977745176016,54.121756334585086,94.88176470151971
65,76.605,0.8579095934034617,0.9697386364855737,54.03018429777917,94.88176470151971
66,76.698,0.8532753144066074,0.9693969764229692,53.94161772338127,94.88176470151971
67,76.797,0.848324114661678,0.9691428151896353,53.847266357618025,94.88176470151971
68,76.893,0.8435153859955047,0.968992951980683,53.755751222896386,94.88176470151971
69,76.986,0.8388334604294035,0.9688738209973176,53.66695050665664,94.88176470151971
70,77.082,0.8339774925506745,0.9687211355424026,53.575132623849775,94.88176470151971
71,77.178,0.8291424918651955,0.9685756720648214,53.4834502889224,94.88176470151971
72,77.271,0.8244609582081599,0.9685448502605848,53.39466113006081,94.88176470151971
73,77.364,0.8197957416046548,0.9684422448483916,53.30596982920136,94.88176470151971
74,77.46,0.8149790726913821,0.9682297941936311,53.21438884726259,94.88176470151971
75,77.556,0.8101822062945283,0.96792921063743,53.1229043589669,94.88176470151971
76,77.655,0.8052450216034485,0.9676002000041285,53.028614329816094,94.88176470151971
77,77.751,0.8004376243839657,0.9672384369462881,52.93703566709151,94.88176470151971
78,77.847,0.7956232623322187,0.9669747273495839,52.84545323164221,94.88176470151971
79,77.943,0.7908274605757637,0.9667061237922884,52.753987667999844,94.88176470151971
80,78.039,0.7860229968206875,0.9665628148068807,52.66250109467683,94.88176470151971
81,78.135,0.7812041442765474,0.966281716880189,52.57088368226999,94.88176470151971
82,78.231,0.7764055055440433,0.9658792212860818,52.47934022187931,94.88176470151971
83,78.327,0.7716206189588611,0.9655283965530671,52.38791041748663,94.88176470151971
84,78.423,0.7668554702465358,0.9652169973318611,52.29662408656797,94.88176470151971
85,78.516,0.7622452661005674,0.9648891960351079,52.20821759500907,94.88176470151971
86,78.612,0.7574744048914609,0.964484525319232,52.11685011167208,94.88176470151971
87,78.708,0.7527173059668922,0.9641910021566792,52.02562244898316,94.88176470151971
88,78.804,0.747977916635481,0.9639219873667761,51.93451720417225,94.88176470151971
89,78.9,0.7432477865301597,0.9635171850863079,51.84340938740825,94.88176470151971
90,79.002,0.7382105838673877,0.9632302785587582,51.746599439970595,94.88176470151971
91,79.098,0.7334731683325616,0.9630357925592582,51.65553011223129,94.88176470151971
92,79.194,0.7287591880466151,0.9628145411088681,51.564603096957136,94.88176470151971
93,79.287,0.724212419834299,0.9625346670699775,51.4766220103842,94.88176470151971
94,79.386,0.7193809372374251,0.9623754080577177,51.3830617628476,94.88176470151971
95,79.479,0.7148924377871306,0.9630647839864641,51.29517183334353,94.88176470151971
96,79.575,0.7102591480319879,0.963776397848396,51.204446744823194,94.88176470151971
97,79.668,0.7057706485816932,0.9644657737771425,51.11655681531912,94.88176470151971
98,79.764,0.7011373588265506,0.9651773876390743,51.025831726798785,94.88176470151971
99,79.857,0.696648859376256,0.9658667635678209,50.93794179729471,94.88176470151971
100,79.956,0.691870779316265,0.9666006153629381,50.84438154975812,94.88176470151971
101,80.049,0.6873822798659704,0.9672899912916846,50.756491620254046,94.88176470151971
102,80.148,0.6826041998059795,0.9680238430868018,50.66293137271745,94.88176470151971
103,80.241,0.6781157003556849,0.9687132190155483,50.57504144321338,94.88176470151971
104,80.337,0.6734824106005421,0.9694248328774802,50.48431635469304,94.88176470151971
105,80.433,0.6688491208453995,0.970136446739412,50.393591266172706,94.88176470151971
106,80.532,0.6640710407854085,0.9708702985345292,50.30003101863611,94.88176470151971
107,80.628,0.6594377510302658,0.9715819123964611,50.209305930115775,94.88176470151971
108,80.727,0.6546596709702748,0.9723157641915783,50.11574568257918,94.88176470151971
109,80.823,0.650026381215132,0.9730273780535101,50.025020594058844,94.88176470151971
110,80.919,0.6453930914599892,0.973738991915442,49.93429550553851,94.88176470151971
111,81.015,0.6407598017048465,0.9744506057773739,49.84357041701817,94.88176470151971
112,81.111,0.6361265119497037,0.9751622196393057,49.752845328497834,94.88176470151971
113,81.204,0.6316380124994092,0.9758515955680522,49.66495539899376,94.88176470151971
114,81.3,0.6270047227442664,0.9765632094299841,49.574230310473425,94.88176470151971
115,81.399,0.6222266426842755,0.9772970612251013,49.48067006293683,94.88176470151971
116,81.495,0.6175933529291328,0.9780086750870332,49.389944974416494,94.88176470151971
117,81.591,0.61296006317399,0.978720288948965,49.29921988589616,94.88176470151971
118,81.687,0.6083267734188473,0.9794319028108969,49.20849479737582,94.88176470151971
119,81.783,0.6036934836637046,0.9801435166728287,49.117769708855484,94.88176470151971
120,81.882,0.5989154036037136,0.980877368467946,59.02420946131889,94.88176470151971
121,81.978,0.594271598985603,0.9815167798475908,58.93348437279855,94.88176470151971
122,82.08,0.5893375565788606,0.9821961544384635,58.837088966245695,94.88176470151971
123,82.179,0.584548633066434,0.9828555474237224,58.7435287187091,94.88176470151971
124,82.275,0.5799048284483234,0.9834949588033671,58.652803630188764,94.88176470151971
125,82.368,0.5754061427245287,0.9841143885773981,58.56491370068469,94.88176470151971
126,82.464,0.570731757831457,0.9846530484216945,58.474075328543606,94.88176470151971
127,82.56,0.5660692809319717,0.9834335783195531,58.38321063083117,94.88176470151971
128,82.653,0.56156535973911,0.9827784543097062,58.295255502892424,94.88176470151971
129,82.749,0.5568904632126156,0.9822279398026357,58.20440509897909,94.88176470151971
130,82.845,0.5522058681907687,0.9817069848319443,58.113514544489334,94.88176470151971
131,82.941,0.5475261151691858,0.9810983433833946,58.02258754927613,94.88176470151971
132,83.037,0.5428396697682337,0.9804086265262832,57.931546885421696,94.88176470151971
133,83.133,0.538163357678658,0.9797698957423211,57.84061627011322,94.88176470151971
134,83.229,0.5334531095685577,0.9792127967955135,57.749536236389496,94.88176470151971
135,83.325,0.5287342383594468,0.9787527904314854,57.65846797462141,94.88176470151971
136,83.421,0.5240286798001728,0.978392821656526,57.5675400801999,94.88176470151971
137,83.52,0.5191925365746484,0.9781505793545786,57.47392799466217,94.88176470151971
138,83.616,0.5145045542503609,0.9778502950593333,57.38313909121321,94.88176470151971
139,83.718,0.509497529437746,0.9776322203042837,57.28654415329392,94.88176470151971
140,83.811,0.5049487854744312,0.9773724999666953,57.19855808269134,94.88176470151971
141,83.904,0.500386889254375,0.977188505780999,57.11051151519781,94.88176470151971
142,84.003,0.4955115305190091,0.9771152588493187,57.016683733331085,94.88176470151971
143,84.099,0.49077885685882255,0.9771356322965137,56.92567001184343,94.88176470151971
144,84.195,0.486027515920917,0.9771044068380018,56.83453644376252,94.88176470151971
145,84.291,0.4812798181506782,0.9769955921173169,56.74341886894919,94.88176470151971
146,84.39,0.4763750068174296,0.9767767721739814,56.649374887929255,94.88176470151971
147,84.486,0.4716018657916211,0.9765844315188067,56.55807766394734,94.88176470151971
148,84.582,0.46682006850608754,0.9764815084100744,56.46674274373782,94.88176470151971
149,84.681,0.4619111747324027,0.9762699335431517,56.37267469180364,94.88176470151971
150,84.777,0.4571398746313912,0.976109059440506,56.281396689244644,94.88176470151971
151,84.873,0.452376380493432,0.975905501850173,56.190158174553915,94.88176470151971
152,84.969,0.44762697215922714,0.9757417426589431,56.09901956868399,94.88176470151971
153,85.068,0.4427418454342825,0.9754353265304596,56.0050713501624,94.88176470151971
154,85.167,0.43788486178722097,0.9750632295438262,55.91127360240469,94.88176470151971
155,85.263,0.43315558215695643,0.9747502524296932,55.820215676132115,94.88176470151971
156,85.359,0.4284252620571348,0.974515761123245,55.72918012347785,94.88176470151971
157,85.452,0.4238549607881804,0.9741513218580792,55.64101065448458,94.88176470151971
158,85.548,0.4191515950644168,0.9738345898055861,55.55011660809693,94.88176470151971
159,85.644,0.41444035295233617,0.9736315912834721,55.459212352316975,94.88176470151971
160,85.74,0.40971045883545043,0.9734560074570575,55.36819584998499,94.88176470151971
161,85.836,0.40496468019133713,0.973426744180243,55.277097959843715,94.88176470151971
162,85.932,0.4002303543518873,0.9734753761951559,55.18607234651712,94.88176470151971
163,86.028,0.3954916923449569,0.9734986690981821,55.0950202138778,94.88176470151971
164,86.124,0.3907544061382221,0.9734541671699208,55.003975915015836,94.88176470151971
165,86.217,0.38614218672475575,0.9734419787378901,54.915630913584074,94.88176470151971
166,86.316,0.38121824679496463,0.973583127692419,54.82148278829112,94.88176470151971
167,86.409,0.3765935992292907,0.9737827530025426,54.73303078841233,94.88176470151971
168,86.508,0.37169264730005314,0.9740762824516184,54.63898652519723,94.88176470151971
169,86.604,0.36692238054072646,0.9742796837237166,54.54770474783107,94.88176470151971
170,86.706,0.36185576287249743,0.9744863845636406,54.45073182135478,94.88176470151971
171,86.802,0.3570657204512023,0.9747417493956949,54.35930768685356,94.88176470151971
172,86.898,0.35226987886354866,0.9749047176572334,54.267872255274426,94.88176470151971
173,86.994,0.3474746858926471,0.9751666413944227,54.17641294307097,94.88176470151971
174,87.09,0.3426872873085758,0.9753226222937871,54.085033004315854,94.88176470151971
175,87.189,0.33777294714757483,0.9753817370940965,53.990956987162775,94.88176470151971
176,87.282,0.3331573826501578,0.9752944071142899,53.902585393219326,94.88176470151971
177,87.381,0.3282331771532216,0.9751079507012712,53.80842592871149,94.88176470151971
178,87.477,0.32345113431476985,0.9749607886411777,53.71708203656896,94.88176470151971
179,87.573,0.31868583206823464,0.9749524826337028,53.62585972645413,94.88176470151971
180,87.669,0.3139043728243288,0.9748697593533786,53.53452947844261,94.88176470151971
181,87.765,0.30915002965530214,0.974651461953491,53.44334529538393,94.88176470151971
182,87.861,0.30439002004307725,0.974541903805229,53.35214883630587,94.88176470151971
183,87.96,0.2994811355682909,0.9745048457155743,53.25810911574989,94.88176470151971
184,88.056,0.29474367308363714,0.974558210165444,53.16706310292894,94.88176470151971
185,88.158,0.28968582849969166,0.974561139793183,53.07017329216454,94.88176470151971
186,88.257,0.2847564400014323,0.9745670961036292,52.97600321804175,94.88176470151971
187,88.353,0.279957159408059,0.9744636650639915,52.88455636060753,94.88176470151971
188,88.452,0.27502504447601817,0.9742305758791158,52.79033362984453,94.88176470151971
189,88.554,0.2699587468054465,0.9740584012440541,52.69337100620272,94.88176470151971
190,88.653,0.2650320694484509,0.9740259565178256,52.599217622693224,94.88176470151971
191,88.755,0.25995223867129985,0.9739621353343624,52.502184539978536,94.88176470151971
192,88.854,0.25501364258901055,0.9738482540989946,52.40794715814745,94.88176470151971
193,88.962,0.24964140951654992,0.9736163484086017,52.305217976308754,94.88176470151971
194,89.064,0.24457271009472029,0.9732676363598711,52.20818202137707,94.88176470151971
195,89.163,0.23967380360916407,0.9729878841449672,52.11415597594477,94.88176470151971
196,89.265,0.23460792865969493,0.9726157762360625,52.01712742913077,94.88176470151971
197,89.364,0.2297044323760115,0.9723987948674724,51.92309237844141,94.88176470151971
198,89.463,0.2248087544517114,0.9720824080380022,51.829072713647165,94.88176470151971
199,89.565,0.21974239977968107,0.9718015944909336,51.73207867493111,94.88176470151971
200,89.664,0.21480678144311177,0.9715575230633183,51.63783015378737,94.88176470151971
201,89.769,0.20954521403619433,0.9713707732203349,51.5377176830519,94.88176470151971
202,89.868,0.20456654978336317,0.9711766143223567,51.44320804643001,94.88176470151971
203,89.967,0.19957656582561317,0.9710739084229963,51.34864342052167,94.88176470151971
204,90.066,0.1945958561980356,0.9709075416466403,51.254127136694606,94.88176470151971
205,90.171,0.1892932412179759,0.9707080520983924,51.153749158050324,94.88176470151971
206,90.27,0.18427158983414255,0.9704573295721497,51.05894859134434,94.88176470151971
207,90.369,0.17927776391773964,0.9700553677467972,50.964262773169494,94.88176470151971
208,90.468,0.1742893402629381,0.9696108657528122,50.86958840172726,94.88176470151971
209,90.57,0.16917490239966448,0.9690080092559314,50.77210978932523,94.88176470151971
210,90.669,0.16421573798827033,0.9684103695885208,50.67751953003696,94.88176470151971
211,90.768,0.15925475057872857,0.9679638333964544,50.58301888931125,94.88176470151971
212,90.87,0.15412370757497199,0.9674569710859376,50.48550078026352,94.88176470151971
213,90.969,0.14914224567805454,0.9670692180397967,50.39090102163001,94.88176470151971
214,91.071,0.14403342496647875,0.9666580533248104,50.293579248523535,94.88176470151971
215,91.173,0.13894489155084247,0.9662662939302635,50.1963966619569,94.88176470151971
216,91.281,0.13359697948161728,0.965700880000599,50.09366439288447,94.88176470151971
217,91.38,0.12867566562027744,0.9651511340826193,49.99935011497283,94.88176470151971
218,91.476,0.12386876431873642,0.9647388262022,49.90774865547644,94.88176470151971
219,91.578,0.11874613753786903,0.9642654612791455,49.810304566967595,94.88176470151971
220,91.677,0.11377510449314157,0.9639214956434602,49.715791920581275,94.88176470151971
221,91.776,0.10881240369613181,0.9636023563478213,49.62134306468932,94.88176470151971
222,91.875,0.10384443852054485,0.963430844468683,49.52690718065909,94.88176470151971
223,91.977,0.0987220925809193,0.9630935950389781,49.42953359030136,94.88176470151971
224,92.079,0.09360084953109811,0.9628989989093032,49.33221438178122,94.88176470151971
225,92.178,0.08865745100874807,0.9625866704687251,49.23789158319789,94.88176470151971
226,92.277,0.08373025566980355,0.9623380813389293,49.14369545964643,94.88176470151971
227,92.379,0.07866653688752144,0.9620402031115081,49.04671203433649,94.88176470151971
228,92.481,0.07360525118307702,0.9617074243866741,48.94973026486568,94.88176470151971
229,92.583,0.06853666019610971,0.9613107029942857,48.8526724691502,94.88176470151971
230,92.685,0.06346736136742599,0.9610341837525432,48.75566112522356,94.88176470151971
231,92.787,0.05840273676705082,0.9606430403346504,48.658631405270754,94.88176470151971
232,92.886,0.053474181091970885,0.9601565108330448,48.56431336577843,94.88176470151971
233,92.985,0.04853384497297227,0.9596015311975737,48.469874373228556,94.88176470151971
234,93.084,0.0436279370739681,0.9589588989229769,48.37558636970845,94.88176470151971
