,t,x,y,energy,sight
0,121.083,0.957600214503417,0.0730673847700929,49.946552487525416,25.4901652676537
1,121.188,0.9627934010468149,0.07048844486803112,49.891600343118455,25.4901652676537
2,121.29,0.9678217406444481,0.06791337789142862,49.83811118302123,25.4901652676537
3,121.395,0.9730388770701637,0.0653769141714316,49.78314135859535,25.4901652676537
4,121.497,0.9780961992771298,0.0629460535529566,49.729896351493345,25.4901652676537
5,121.605,0.9834873629561918,0.06045212419800141,49.673527039537305,25.4901652676537
6,121.71,0.9886544901308811,0.0579312517369031,49.61888865391837,25.4901652676537
7,121.812,0.9750654801453956,0.05555620866506471,49.56595498350368,25.4901652676537
8,121.914,0.9700698738989919,0.053116919891519766,49.51304192375573,25.4901652676537
9,122.025,0.9646164221717678,0.050547884251000354,49.455598251868444,25.4901652676537
10,122.13,0.9595255596272688,0.047963091708621855,49.40121453588578,25.4901652676537
11,122.232,0.954510394775421,0.0456099834517591,49.34842672709682,25.4901652676537
12,122.334,0.9495670649698063,0.04316526188153851,49.29579860530724,25.4901652676537
13,122.439,0.9444640706858773,0.04067404782636559,49.24161233682014,25.4901652676537
14,122.544,0.939360208597612,0.03815545266306727,49.18734386989048,25.4901652676537
15,122.646,0.9344983591451295,0.03557744841171907,49.134790963823704,25.4901652676537
16,122.757,0.9291493697756351,0.032927380099015045,49.07772364571778,25.4901652676537
17,122.862,0.9240909243366682,0.03044344070195884,49.02381391777379,25.4901652676537
18,122.967,0.9191031043767424,0.027848207432540704,48.96998618888382,25.4901652676537
19,123.069,0.9143053348664022,0.025222204666385428,48.9176486308225,25.4901652676537
20,123.171,0.9094659275910597,0.022641712560947203,48.86521506571339,25.4901652676537
21,123.273,0.9045318271388935,0.02019036450762031,48.81262103214771,25.4901652676537
22,123.375,0.8996792159012561,0.01759735028941468,48.76007517883786,25.4901652676537
23,123.48,0.8946152123469588,0.0150293394296273,48.70589335472189,25.4901652676537
24,123.582,0.8896478818411273,0.01861016150947926,48.65328211429281,25.4901652676537
25,123.684,0.8847410116444973,0.021153657036044958,48.60057657184759,25.4901652676537
26,123.789,0.8797596082847315,0.023886096370877668,48.5463712017467,25.4901652676537
27,123.894,0.8747803572971767,0.026599786145327264,48.49223548524257,25.4901652676537
28,124.002,0.8696369957523131,0.029311153293600695,48.436671268981975,25.4901652676537
29,124.11,0.8645079017842242,0.03204679759239785,48.38111493768612,25.4901652676537
30,124.218,0.8593443099459032,0.0347450508259029,48.32547508306532,25.4901652676537
31,124.326,0.854227062637038,0.03750898957045225,48.269899917358366,25.4901652676537
32,124.434,0.8491451458025508,0.040359835669563776,48.21425459750644,25.4901652676537
33,124.545,0.8439415003397148,0.04328171234041346,48.157197605309484,25.4901652676537
34,124.65,0.839088057226659,0.04619947914250821,48.10311145679153,25.4901652676537
35,124.761,0.8339236741192366,0.049197957952518044,48.04602957200782,25.4901652676537
36,124.869,0.8288133942507534,0.05202059966517254,47.990313440642524,25.4901652676537
37,124.977,0.8237876712938801,0.05493639863346045,47.934774497684124,25.4901652676537
38,125.085,0.8187245075387312,0.057786903287914394,47.879234877793145,25.4901652676537
39,125.196,0.8135647337291589,0.06083070791660985,47.82203192874519,25.4901652676537
40,125.307,0.8083740909557428,0.06378902544910993,47.76493253243649,25.4901652676537
41,125.415,0.8032586428471762,0.0666012528032304,47.709219599304745,25.4901652676537
42,125.523,0.7980904202290608,0.06930847043842513,47.653526888340885,25.4901652676537
43,125.634,0.7927167231357356,0.07192710149615797,47.59640637653796,25.4901652676537
44,125.745,0.787372988179073,0.07457055856812703,47.539387968202675,25.4901652676537
45,125.856,0.7820507296486319,0.0772525799750957,47.48238227964088,25.4901652676537
46,125.964,0.776809879345055,0.07970751173046856,47.42699044129465,25.4901652676537
47,126.069,0.7716649865160238,0.08197270437913526,47.37316986353072,25.4901652676537
48,126.18,0.7662026112619718,0.08438464320830842,47.31609158830052,25.4901652676537
49,126.288,0.7608493204326446,0.08658302399008981,47.260701188192904,25.4901652676537
50,126.396,0.7554446429212939,0.08864403947622512,47.20532864002439,25.4901652676537
51,126.507,0.7498925782302098,0.09071674222165439,47.14853733459381,25.4901652676537
52,126.618,0.7442756927807405,0.09268643242058741,47.09158031897436,25.4901652676537
53,126.723,0.7390050209934255,0.09462999456155219,47.03778457176015,25.4901652676537
54,126.831,0.733561326294421,0.09655281079978008,46.98248250983597,25.4901652676537
55,126.936,0.7282375661347851,0.09832251214652923,46.92873415917861,25.4901652676537
56,127.044,0.722704797970819,0.10003387920676068,46.87331628747337,25.4901652676537
57,127.152,0.71718796956141,0.10181304931147747,46.81786497920704,25.4901652676537
58,127.26,0.711648115460817,0.10343994724148571,46.76255973251582,25.4901652676537
59,127.371,0.7060138291820792,0.10524216724271176,46.70583778936213,25.4901652676537
60,127.476,0.7007460734291977,0.10708578140068184,46.652275928026285,25.4901652676537
61,127.584,0.6953218283049484,0.10893735188314783,46.597241042684125,25.4901652676537
62,127.692,0.6899421986554155,0.1109209704995281,46.542192531709304,25.4901652676537
63,127.8,0.6845455850491518,0.11280442298452001,46.487258234044475,25.4901652676537
64,127.908,0.6792067032601453,0.11481919910635137,46.43238436592064,25.4901652676537
65,128.016,0.6738464001740041,0.11676041258307064,46.37754518279909,25.4901652676537
66,128.121,0.6685750398784365,0.11848754204953886,46.324200686443895,25.4901652676537
67,128.235,0.6628084608812046,0.12023048570592917,46.266273121334464,25.4901652676537
68,128.337,0.6576920086579467,0.12191799654904738,46.21445944072514,25.4901652676537
69,128.445,0.6522773099094278,0.12379520694192328,46.159428947903265,25.4901652676537
70,128.559,0.646620425882845,0.12585457491905103,46.101527926167265,25.4901652676537
71,128.661,0.6415854303302562,0.1277482302523985,46.049766949679906,25.4901652676537
72,128.772,0.6360597195298392,0.12966823002080255,45.9934656611403,25.4901652676537
73,128.88,0.6306723091442076,0.1315291973391215,45.93863420742723,25.4901652676537
74,128.988,0.6252963805051189,0.13344571880188583,45.88375434979039,25.4901652676537
75,129.09,0.6202034188212918,0.13524881280035894,45.83184361561867,25.4901652676537
76,129.201,0.6146468528876352,0.1372024311963621,45.775284920587296,25.4901652676537
77,129.309,0.6092022081632394,0.13895241650563978,45.72033060092644,25.4901652676537
78,129.414,0.6039014553556009,0.14069750863162855,45.66677151306952,25.4901652676537
79,129.522,0.5984677761753299,0.14251124524057163,45.611756865716664,25.4901652676537
80,129.63,0.5929899880328824,0.14425484577908956,45.55661296026804,25.4901652676537
81,129.738,0.587522159695267,0.14600065417231742,45.50152549430727,25.4901652676537
82,129.843,0.5821719402433356,0.14764118187594855,45.44786742775627,25.4901652676537
83,129.948,0.576861345879507,0.14942037684560733,45.3941797710782,25.4901652676537
84,130.056,0.5714189441549876,0.15137033645986694,45.33882727969608,25.4901652676537
85,130.167,0.5658312349368317,0.15339389565815825,45.28193041431425,25.4901652676537
86,130.272,0.5605484347415696,0.15537609336040262,45.22797570730829,25.4901652676537
87,130.38,0.5551605741696046,0.1574819931872869,45.17260009897038,25.4901652676537
88,130.497,0.5492870431035908,0.15958320494277994,45.11279415248131,25.4901652676537
89,130.617,0.5432667257070087,0.16174458075708825,45.05146414275823,25.4901652676537
90,130.728,0.5376761600580582,0.16371940138454666,44.9946551189462,25.4901652676537
91,130.833,0.5323853459419243,0.16558519384553036,44.94090697909152,25.4901652676537
92,130.938,0.5271327357847383,0.16760748548783239,44.88704171088842,25.4901652676537
93,131.043,0.5218899437406537,0.16968664311405904,44.83310250166801,25.4901652676537
94,131.154,0.5163448890689482,0.17182240549169325,44.77621003788262,25.4901652676537
95,131.265,0.5107623554814114,0.17389848589531828,44.71922845616581,25.4901652676537
96,131.373,0.5053218301405243,0.17594365243269655,44.66367726265287,25.4901652676537
97,131.484,0.49975033974663774,0.1781366720014474,44.606494174908214,25.4901652676537
98,131.589,0.49446519880439255,0.1802162882527933,44.55230180944756,25.4901652676537
99,131.703,0.4886746308050672,0.18240622514014745,44.49330790711026,25.4901652676537
100,131.811,0.4831763662129987,0.1844137856990777,44.43749381780358,25.4901652676537
101,131.916,0.47782952257996036,0.18641132421515716,44.38312082914277,25.4901652676537
102,132.024,0.4723514412303259,0.18854351198190442,44.32714614286324,25.4901652676537
103,132.132,0.4668636369230585,0.19070310579837638,44.271049584531106,25.4901652676537
104,132.24,0.46138815685289336,0.19296677665863993,44.214776955693154,25.4901652676537
105,132.345,0.45607275028814637,0.19524184392913152,44.15993017234616,25.4901652676537
106,132.456,0.4503990248110199,0.1975195867792356,44.10193875171056,25.4901652676537
107,132.564,0.44495256534819044,0.1998595658287335,44.045647583535526,25.4901652676537
108,132.672,0.4394562884222445,0.20212509267838225,43.98924739285086,25.4901652676537
109,132.78,0.4339603971069142,0.20437689594475977,43.93288287044887,25.4901652676537
110,132.885,0.4286418484213577,0.20668235965342224,43.877940658284444,25.4901652676537
111,132.993,0.4231830582425853,0.20912580734296687,43.82131123021828,25.4901652676537
112,133.104,0.41761305163244894,0.21176370034231673,43.763004848866984,25.4901652676537
113,133.212,0.412186575210007,0.2142818014459864,43.70636544189725,25.4901652676537
114,133.32,0.406826459335256,0.21697468269633088,43.64962188318177,25.4901652676537
115,133.428,0.4014206650563441,0.21951637725836665,43.59303849948596,25.4901652676537
116,133.536,0.396075423079569,0.22219079328592112,43.53643300327926,25.4901652676537
117,133.644,0.3907424094699613,0.22491202329677512,43.4797622378029,25.4901652676537
118,133.758,0.3850499352479301,0.22763623129140687,43.4200009089522,25.4901652676537
119,133.866,0.37960937693047575,0.23009270436537643,43.36344372359919,25.4901652676537
120,133.974,0.37414576858839144,0.23247425864872578,43.30694615123208,25.4901652676537
121,134.082,0.3686546170372594,0.2348461731429054,43.25031142815722,25.4901652676537
122,134.19,0.36311364190583323,0.23704492050484988,43.19380629776984,25.4901652676537
123,134.301,0.35748729159286957,0.2394514266556441,43.13577939803844,25.4901652676537
124,134.415,0.3516976432032627,0.24184131220688254,43.07632039622298,25.4901652676537
125,134.523,0.34627351116856764,0.24418471437005826,43.02015179379767,25.4901652676537
126,134.631,0.3408965302592243,0.24657824745167853,42.96413068849569,25.4901652676537
127,134.739,0.33550361821060937,0.24888482372077667,42.90823873088128,25.4901652676537
128,134.85,0.33001075447230604,0.2514109503880786,42.850682269131724,25.4901652676537
129,134.958,0.32465948335397854,0.25382105417249023,42.7947679999495,25.4901652676537
130,135.069,0.3191419036975818,0.2562051078273829,42.73743739253965,25.4901652676537
131,135.18,0.31367547800027173,0.25876387918252697,42.67994648382277,25.4901652676537
132,135.285,0.30849792999657527,0.26120474118718756,42.62546941333272,25.4901652676537
133,135.39,0.30325249758553763,0.26349914122003054,42.5709845047449,25.4901652676537
134,135.501,0.2976179474372142,0.26576321631768013,42.513258343578975,25.4901652676537
135,135.612,0.2920015662915022,0.26811513384653,42.45542637221753,25.4901652676537
136,135.72,0.2865508065549737,0.2704509025268719,42.39912053746741,25.4901652676537
137,135.828,0.28108191175614283,0.2727070343325428,42.34290528065447,25.4901652676537
138,135.936,0.2755860463043251,0.2748900505696054,42.28670562902461,25.4901652676537
139,136.047,0.2699904689826608,0.2772841779059818,42.228890963403586,25.4901652676537
140,136.158,0.2643283485825388,0.2795861082622527,42.17091042185671,25.4901652676537
141,136.266,0.2587936563972258,0.2817438400021526,42.11453879651048,25.4901652676537
142,136.377,0.2531043514147065,0.28401635056980434,42.056467261246276,25.4901652676537
143,136.485,0.24761628645254646,0.2863560225301159,41.99993206781287,25.4901652676537
144,136.593,0.24218388813722283,0.2888115105843083,41.943425070666656,25.4901652676537
145,136.701,0.2367163976216471,0.2912200957850025,41.88683530617023,25.4901652676537
146,136.812,0.23108030289370202,0.29360775916016396,41.82879825749395,25.4901652676537
147,136.923,0.22538675029989025,0.2958479371231034,41.770777712495025,25.4901652676537
148,137.043,0.21924002265842937,0.2983441031752656,41.70792646102764,25.4901652676537
149,137.151,0.21368371078067513,0.30046509288377377,41.65151037989456,25.4901652676537
150,137.259,0.20811375964035833,0.30262579824480756,41.59492154300079,25.4901652676537
151,137.376,0.202131620162939,0.30514987219598116,41.533485052496715,25.4901652676537
152,137.49,0.19635017540573035,0.30766286556132905,41.47376701667262,25.4901652676537
153,137.595,0.19108354078327,0.3100846630527391,41.41882457248678,25.4901652676537
154,137.712,0.18529581426784753,0.3129417965757517,41.35763323538362,25.4901652676537
155,137.826,0.17965923553856,0.3156927220776148,41.29811958994053,25.4901652676537
156,137.937,0.17412869834227973,0.31827832202358525,41.2401842681332,25.4901652676537
157,138.057,0.1681559903039704,0.3211299382895746,41.17743353556511,25.4901652676537
158,138.174,0.16228444417122959,0.3237506364734412,41.1164000960172,25.4901652676537
159,138.291,0.15642242602978423,0.32643281005406616,41.05526019214789,25.4901652676537
160,138.411,0.15044670230256,0.32930421307661367,40.992437348939404,25.4901652676537
161,138.525,0.14473728721257198,0.33203272820145824,40.932566315399406,25.4901652676537
162,138.642,0.1388722006992788,0.33486261529711986,40.87100651977233,25.4901652676537
163,138.762,0.13286316447903812,0.33771773007776035,40.80803625165361,25.4901652676537
164,138.867,0.1276930189127187,0.3403444766486553,40.753078541753176,25.4901652676537
165,138.978,0.12229054274699795,0.34322080329338345,40.69504488953157,25.4901652676537
166,139.083,0.11711649203222367,0.3457738858863133,40.64027591933441,25.4901652676537
167,139.194,0.1115883459280291,0.34829778134748884,40.582520123929775,25.4901652676537
168,139.308,0.10584984245862539,0.35073982279985777,40.523233969451994,25.4901652676537
169,139.419,0.10018444125159517,0.3529543477240082,40.46544109797788,25.4901652676537
170,139.527,0.09473925170662667,0.3552542091590694,40.4092580329932,25.4901652676537
171,139.638,0.08921848330281779,0.35774964719426955,40.35162055549015,25.4901652676537
172,139.746,0.08386995580066978,0.3602714167814668,40.295423083953565,25.4901652676537
173,139.854,0.07851817975312717,0.362798601145338,40.23919202155536,25.4901652676537
174,139.965,0.0729980171664253,0.3653907795039129,40.18129896150148,25.4901652676537
175,140.07,0.06780939422634522,0.3678971856800561,40.12657724874072,25.4901652676537
176,140.181,0.06235140540095914,0.3705498755061953,40.06887627773873,25.4901652676537
177,140.289,0.056983518005201295,0.3730715499205073,40.01256695727696,25.4901652676537
178,140.397,0.05158762592094999,0.3754902614448299,39.956369621826056,25.4901652676537
179,140.514,0.04570800123127368,0.37808400457419694,39.895358894129835,25.4901652676537
180,140.619,0.04048620233522995,0.38055868528131787,39.84053328648078,25.4901652676537
181,140.73,0.0349298254706926,0.3830571115870473,39.78268019159937,25.4901652676537
182,140.841,0.029348815325361093,0.38544463782935756,39.7249678583693,25.4901652676537
183,140.946,0.024027010491279872,0.38757483575389695,39.670437974338505,25.4901652676537
184,141.057,0.018420422221016253,0.3898165676454453,39.612931124642046,25.4901652676537
185,141.168,0.0127874515986361,0.3920149868591866,39.555369086177585,25.4901652676537
186,141.276,0.02391930202174778,0.39419142787615835,39.4994175667281,25.4901652676537
187,141.384,0.029405122429606263,0.3963550459100037,39.443323381307934,25.4901652676537
188,141.492,0.03489330886587793,0.39856078513400917,39.38711540859459,25.4901652676537
189,141.597,0.040200241371760384,0.40076504280099,39.33249468052575,25.4901652676537
190,141.708,0.04583093249772884,0.4030886095009583,39.274647791062215,25.4901652676537
191,141.816,0.05127503577568836,0.4053803587903436,39.2184913038179,25.4901652676537
192,141.927,0.05693011784356511,0.4076164857760962,39.16070931004617,25.4901652676537
193,142.038,0.06250505574060317,0.4099930019791499,39.10306039015006,25.4901652676537
194,142.143,0.06775375171266991,0.41229421107858133,39.04853886791502,25.4901652676537
195,142.257,0.07352736677882597,0.4146406831067312,38.989280136477056,25.4901652676537
196,142.365,0.07895554881314903,0.4170038572846093,38.9330374054235,25.4901652676537
197,142.473,0.08441280021381424,0.4192524002584195,38.87690955332659,25.4901652676537
198,142.581,0.089935391625628,0.421338815282164,38.820773783727596,25.4901652676537
199,142.689,0.09541965798899152,0.42359181648911826,38.7644751832465,25.4901652676537
200,142.8,0.10105989988593926,0.4259269068966983,38.70654363179348,25.4901652676537
201,142.908,0.10660708582040042,0.428121405635112,38.65001156308762,25.4901652676537
202,143.016,0.11209283432831427,0.430422262988161,38.593586776055005,25.4901652676537
203,143.124,0.11760324407088778,0.4326611695010086,38.53716740278348,25.4901652676537
204,143.232,0.12307272153345121,0.4349908693570718,38.480766666730645,25.4901652676537
205,143.34,0.12848572361076083,0.43742741358202863,38.42442267752868,25.4901652676537
206,143.448,0.13391850348313267,0.43987642892984047,38.367930497989896,25.4901652676537
207,143.562,0.13973405034073708,0.4423188757099715,38.30818917320523,25.4901652676537
208,143.67,0.14521782286593304,0.4447123778406529,38.25154274129816,25.4901652676537
209,143.781,0.15084107382263837,0.4471894009061731,38.193354326197884,25.4901652676537
210,143.886,0.15615158866096407,0.4495302934043104,38.13836840618518,25.4901652676537
211,143.994,0.16157385998501045,0.4520436598780705,38.08176616289035,25.4901652676537
212,144.102,0.1669609210478367,0.4546674511578047,38.02506410020133,25.4901652676537
213,144.21,0.17140598837927878,0.4506492321501878,37.96836203751231,25.4901652676537
214,144.318,0.17585105571072088,0.4466310131425709,47.91165997482329,25.4901652676537
215,144.426,0.1803243700311256,0.44265694524962135,47.85501186198803,25.4901652676537
216,144.534,0.18493766650205443,0.43880892419734996,47.79821109528664,25.4901652676537
217,144.642,0.1896515871875462,0.43510781889563444,47.74150127851953,25.4901652676537
218,144.75,0.19428480855348268,0.4312910535485863,47.684729997015765,25.4901652676537
219,144.897,0.2004527306389312,0.4258975247916026,47.607311245577094,25.4901652676537
220,145.002,0.2048343635707362,0.42205710925757145,47.55217886141203,25.4901652676537
221,145.107,0.20924433760372563,0.41829004907991924,47.49721651077879,25.4901652676537
222,145.215,0.2137335010751963,0.4143512478017497,47.4406417414683,25.4901652676537
223,145.314,0.2177376240931877,0.4106479592706303,47.38891191008864,25.4901652676537
224,145.422,0.2220572470364229,0.4065706941979757,47.332543188890696,25.4901652676537
225,145.524,0.2262242087042395,0.4028304710704643,47.279373968979705,25.4901652676537
226,145.629,0.23063162281417632,0.39907625416163445,47.22447742679241,25.4901652676537
227,145.734,0.2350732511178823,0.39534493768321116,47.169508361429905,25.4901652676537
228,145.839,0.2395437008072558,0.39161702599148973,47.11441183252408,25.4901652676537
229,145.941,0.24386297219882383,0.3879662350891363,47.06088349027535,25.4901652676537
230,146.046,0.24843401706581023,0.3843203434982872,47.00561981119925,25.4901652676537
231,146.154,0.2531556241901101,0.38058211805339914,46.948724275277975,25.4901652676537
232,146.259,0.25768136634286354,0.37690991752901015,46.893580963186885,25.4901652676537
