,t,x,y,energy,sight
0,123.894,0.40651582604514747,0.9695913599202342,49.89721880523021,95.5362041879729
1,124.002,0.40156259550376766,0.9666307621451926,49.79150100489557,95.5362041879729
2,124.11,0.3966093649623878,0.9636701643701511,49.685783204560934,95.5362041879729
3,124.218,0.391656134421008,0.9607095665951094,49.580065404226296,95.5362041879729
4,124.326,0.38670290387962813,0.9577489688200679,49.47434760389166,95.5362041879729
5,124.434,0.3817496733382483,0.9547883710450262,49.36862980355702,95.5362041879729
6,124.545,0.3766588530596079,0.9517455344429001,49.25997539765753,95.5362041879729
7,124.65,0.3718432122554886,0.9488671754949429,49.15719420288774,95.5362041879729
8,124.761,0.3667523919768482,0.9458243388928167,49.048539796988244,95.5362041879729
9,124.869,0.3617991614354684,0.9428637411177752,48.942821996653606,95.5362041879729
10,124.977,0.35684593089408856,0.9399031433427336,48.83710419631897,95.5362041879729
11,125.085,0.3518927003527087,0.936942545567692,48.73138639598433,95.5362041879729
12,125.196,0.3468018800740683,0.933899708965566,48.62273199008484,95.5362041879729
13,125.307,0.34171105979542793,0.9308568723634398,48.514077584185344,95.5362041879729
14,125.415,0.33675782925404807,0.9278962745883982,48.408359783850706,95.5362041879729
15,125.523,0.3318045987126682,0.9249356768133566,48.30264198351607,95.5362041879729
16,125.634,0.3267341333968873,0.9218396442433805,48.193923032004115,95.5362041879729
17,125.745,0.3216385412898253,0.9187533999208691,48.08509923102994,95.5362041879729
18,125.856,0.3157829739040187,0.9198498913846137,47.97627543005577,95.5362041879729
19,125.964,0.31008566509620694,0.9209167479439329,47.870392812891716,95.5362041879729
20,126.069,0.30454661486638995,0.9219539695988264,47.767451379537775,95.5362041879729
21,126.18,0.2986910474805834,0.9230504610625709,47.6586275785636,95.5362041879729
22,126.288,0.2929937386727716,0.9241173176218901,47.55274496139955,95.5362041879729
23,126.396,0.28729642986495985,0.9251841741812091,47.44686234423549,95.5362041879729
24,126.507,0.2814408624791533,0.9262806656449538,47.33803854326132,95.5362041879729
25,126.618,0.2755852950933467,0.9273771571086984,47.22921474228715,95.5362041879729
26,126.723,0.2700462448635298,0.9284143787635919,47.12627330893321,95.5362041879729
27,126.831,0.264348936055718,0.929481235322911,47.02039069176915,95.5362041879729
28,126.936,0.25880988582590103,0.9305184569778046,46.91744925841521,95.5362041879729
29,127.044,0.2531125770180893,0.9315853135371237,46.811566641251154,95.5362041879729
30,127.152,0.24741526821027757,0.932652170096443,46.7056840240871,95.5362041879729
31,127.26,0.24171795940246582,0.933719026655762,46.59980140692304,95.5362041879729
32,127.371,0.2358623920166593,0.9348155181195068,46.49097760594887,95.5362041879729
33,127.476,0.2303233417868423,0.9358527397744003,46.38803617259493,95.5362041879729
34,127.584,0.22462603297903055,0.9369195963337196,46.282153555430874,95.5362041879729
35,127.692,0.21892872417121884,0.9379864528930387,46.17627093826682,95.5362041879729
36,127.8,0.2132314153634071,0.939053309452358,46.07038832110276,95.5362041879729
37,127.908,0.20753410655559534,0.940120166011677,45.964505703938705,95.5362041879729
38,128.016,0.2018367977477836,0.9411870225709963,45.85862308677465,95.5362041879729
39,128.121,0.1963113075027554,0.9421891569865345,45.75580770298903,95.5362041879729
40,128.235,0.19029496858104505,0.9433354377489145,45.64400297328592,95.5362041879729
41,128.337,0.1848231864539602,0.9436331230953539,45.54396716249893,95.5362041879729
42,128.445,0.179029534789988,0.9439483193445248,45.43804689225388,95.5362041879729
43,128.559,0.1729140135891285,0.9442810264964274,45.32624216255077,95.5362041879729
44,128.661,0.16744223146204368,0.9445787118428667,45.22620635176378,95.5362041879729
45,128.772,0.1614876450296278,0.9449026635434035,45.1173438517897,95.5362041879729
46,128.88,0.15569399336565565,0.9452178597925744,45.01142358154465,95.5362041879729
47,128.988,0.14990034170168345,0.9455330560417454,44.9055033112996,95.5362041879729
48,129.09,0.1444285595745986,0.9458307413881848,44.805467500512606,95.5362041879729
49,129.201,0.13847397314218277,0.9461546930887215,44.696605000538526,95.5362041879729
50,129.309,0.13268032147821057,0.9464698893378924,44.590684730293475,95.5362041879729
51,129.414,0.12704760458268208,0.9467763301356976,44.487706689777454,95.5362041879729
52,129.522,0.12125395291870988,0.9470915263848685,44.3817864195324,95.5362041879729
53,129.63,0.11546030125473769,0.9474067226340395,44.27586614928735,95.5362041879729
54,129.738,0.10966664959076551,0.9477219188832103,44.1699458790423,95.5362041879729
55,129.843,0.104033932695237,0.9480283596810155,44.06696783852628,95.5362041879729
56,129.948,0.09840121579970848,0.9483348004788207,43.96398979801026,95.5362041879729
57,130.056,0.09260756413573631,0.9486499967279916,43.85806952776521,95.5362041879729
58,130.167,0.08665297770332045,0.9489739484285282,43.74920702779113,95.5362041879729
59,130.272,0.08102026080779194,0.9492803892263334,43.64622898727511,95.5362041879729
60,130.38,0.07522660914381976,0.9495955854755043,43.54030871703006,95.5362041879729
61,130.497,0.06895015317451657,0.9499370480787727,43.42556175759792,95.5362041879729
62,130.617,0.06254627630518508,0.9503317900294537,43.30807019266939,95.5362041879729
63,130.728,0.0566056826793538,0.9506458019153607,43.19930052501074,95.5362041879729
64,130.833,0.05098975509416198,0.9509947402697774,43.09641393370751,95.5362041879729
65,130.938,0.045405743002646735,0.9515049211524357,42.99365206350737,95.5362041879729
66,131.043,0.039823895784505,0.9520109585442963,42.890906395000655,95.5362041879729
67,131.154,0.03392623652570484,0.9526299752078236,42.78225724431465,95.5362041879729
68,131.265,0.028036705964532116,0.9531338842359667,42.67372974272337,95.5362041879729
69,131.373,0.02231919204698834,0.9537294492174129,42.56815360370076,95.5362041879729
70,131.484,0.01647720490664243,0.9545020877675692,42.459742516694135,95.5362041879729
71,131.589,0.010972520896964547,0.9553655959311479,42.35720636894132,95.5362041879729
72,131.703,0.026277282190648444,0.9561350134799669,42.24588565609902,95.5362041879729
73,131.811,0.03198870752349954,0.956825411700841,42.14028037793896,95.5362041879729
74,131.916,0.03754097348925832,0.9574461546776533,42.03764914559121,95.5362041879729
75,132.024,0.043249995298287776,0.9579778995439957,41.93216719379204,95.5362041879729
76,132.132,0.04894727057626142,0.9586365154599964,41.826675734360734,95.5362041879729
77,132.24,0.054627934059206754,0.9592557580584087,41.72131804961896,95.5362041879729
78,132.345,0.06015081129175008,0.9597622055364552,41.61894799166605,95.5362041879729
79,132.456,0.06597736360526357,0.9603721119244308,41.51075752408243,95.5362041879729
80,132.564,0.0716031611522778,0.9611007349532048,41.40566563312247,95.5362041879729
81,132.672,0.07726835102417601,0.961697322422155,41.300421864631474,95.5362041879729
82,132.78,0.08290767581925981,0.9624421216978737,41.19523070393512,95.5362041879729
83,132.885,0.08838615745653403,0.9632414291665297,41.09292186432996,95.5362041879729
84,132.993,0.09401434438385613,0.9639358829729083,40.987842236299834,95.5362041879729
85,133.104,0.09981956156940673,0.9646120706495853,40.87974086634851,95.5362041879729
86,133.212,0.10546430668809618,0.9654311671059552,40.774450068650786,95.5362041879729
87,133.32,0.11113139404184276,0.9662858707499693,40.66898446459827,95.5362041879729
88,133.428,0.11679541673244356,0.9670786318739442,40.56359530798816,95.5362041879729
89,133.536,0.12245685241637072,0.9679977432082205,40.45810167307758,95.5362041879729
90,133.644,0.12810119508528234,0.9690179051374311,40.35260652350518,95.5362041879729
91,133.758,0.13405151712105015,0.9702077213816658,40.241163085310255,95.5362041879729
92,133.866,0.1396670827719409,0.9714888037292466,40.13551404633105,95.5362041879729
93,133.974,0.14529302288413296,0.9727409440215287,40.029840954585325,95.5362041879729
94,134.082,0.15094054474797464,0.9738717238497827,39.92419335086198,95.5362041879729
95,134.19,0.15660982663382267,0.9749526409387885,39.81847027899404,95.5362041879729
96,134.301,0.1624286760803243,0.9761367135361454,39.709769645099776,95.5362041879729
97,134.415,0.16834205480550618,0.9775036461849131,39.598318530659775,95.5362041879729
98,134.523,0.17394746823501012,0.978898457828374,39.492563856931135,95.5362041879729
99,134.631,0.17956190486074028,0.9803518057877738,39.38666103479393,95.5362041879729
100,134.739,0.18515482672728958,0.9818040761690021,39.280893231200714,95.5362041879729
101,134.85,0.19090303473955889,0.9832463684481498,39.17226754197488,95.5362041879729
102,134.958,0.1965189673618962,0.9846145961168504,39.06648817606357,95.5362041879729
103,135.069,0.2022781929558112,0.9827026908044335,38.95780893716736,95.5362041879729
104,135.18,0.20804601149975982,0.9813081639821724,38.84913450302741,95.5362041879729
105,135.285,0.21350017419247283,0.9800804590409189,38.74647912448724,95.5362041879729
106,135.39,0.21892463648158414,0.9788326052276638,38.64398047649191,95.5362041879729
107,135.501,0.22470815668690686,0.9776244980375692,38.53547022956403,95.5362041879729
108,135.612,0.23045239373543286,0.976359182590566,38.42712898749064,95.5362041879729
109,135.72,0.23606040560648078,0.9752579438740943,38.32176619321381,95.5362041879729
110,135.828,0.24162995193831566,0.9740538053421869,38.21651147058893,95.5362041879729
111,135.936,0.2471600167329761,0.9727767622970763,38.111401552177604,95.5362041879729
112,136.047,0.2528709580296916,0.9714625247339669,38.003199411823964,95.5362041879729
113,136.158,0.2585823153853768,0.9700820265927061,37.894897308848236,95.5362041879729
114,136.266,0.2641325706227488,0.9687890580582709,37.78963848419053,95.5362041879729
115,136.377,0.2697833876959748,0.9672978629966671,37.68153841739629,95.5362041879729
116,136.485,0.27522802913503,0.9657338909617719,37.576497534413946,95.5362041879729
117,136.593,0.28072488937229084,0.964317646021942,37.47138267356764,95.5362041879729
118,136.701,0.28620146447665734,0.9627724094409473,37.36617805847131,95.5362041879729
119,136.812,0.29187581737874013,0.9612605224030162,37.25789845147378,95.5362041879729
120,136.923,0.29754596391713456,0.9598267127714852,37.14977048366319,95.5362041879729
121,137.043,0.30373061170046967,0.9584560453008987,37.03279935270461,95.5362041879729
122,137.151,0.30926307925544977,0.9571040652250264,36.92756358746862,95.5362041879729
123,137.259,0.3148347912855821,0.9558265438829014,36.822193228423096,95.5362041879729
124,137.376,0.3208599816520421,0.9544351245410068,36.70809888427549,95.5362041879729
125,137.49,0.326718457481628,0.9530867303237518,36.59701682490808,95.5362041879729
126,137.595,0.3320705981130082,0.9517120093820811,36.494775897907424,95.5362041879729
127,137.712,0.3380952278756001,0.9503175224790381,36.38068062708004,95.5362041879729
128,137.826,0.34400870077672596,0.9491189055215632,36.26945726819136,95.5362041879729
129,137.937,0.3498027006999632,0.9481111044212028,36.16112211128055,95.5362041879729
130,138.057,0.35607521510034906,0.947126984448054,36.044057971385115,95.5362041879729
131,138.174,0.3621671798527374,0.9460999495660497,35.93000097177484,95.5362041879729
132,138.291,0.36127245877659464,0.9399871507480693,35.81594397216456,95.5362041879729
133,138.411,0.3603547961343969,0.9337176134988587,35.69896243410274,95.5362041879729
134,138.525,0.3594830166243091,0.9277615531121086,35.58782997294401,95.5362041879729
135,138.642,0.3585882955481663,0.9216487542941282,35.47377297333373,95.5362041879729
136,138.762,0.35767063290596857,0.9153792170449175,35.35679143527191,95.5362041879729
137,138.867,0.35686767809404557,0.9098933719518584,35.25443258946781,95.5362041879729
138,138.978,0.3560188401500127,0.9040940499963386,35.146224666760624,95.5362041879729
139,139.083,0.3552158853380897,0.8986082049032793,35.043865820956526,95.5362041879729
140,139.194,0.35436704739405683,0.8928088829477595,34.93565789824934,95.5362041879729
141,139.308,0.353495267883969,0.8868528225610094,34.82452543709061,95.5362041879729
142,139.419,0.3526464299399361,0.8810535006054895,34.71631751438342,95.5362041879729
143,139.527,0.35182053356195814,0.8754109170811999,34.61103413012778,95.5362041879729
144,139.638,0.3509716956179253,0.86961159512568,34.50282620742059,95.5362041879729
145,139.746,0.3501457992399473,0.8639690116013904,34.39754282316495,95.5362041879729
146,139.854,0.34931990286196934,0.8583264280771008,39.292259438909305,95.5362041879729
147,139.965,0.3486509104003458,0.852509068692156,39.18408616855488,95.5362041879729
148,140.07,0.3479798990920439,0.8470171551392023,39.08180119781132,95.5362041879729
149,140.181,0.3471471599308665,0.8412155077030699,38.97359332616082,95.5362041879729
150,140.289,0.3462472499983522,0.8355672022811504,38.86820217281336,95.5362041879729
151,140.397,0.3452999706641175,0.8299378429500358,38.76288167644342,95.5362041879729
152,140.514,0.34418006810602936,0.8238704269914002,38.64887605013211,95.5362041879729
153,140.619,0.34311238585624465,0.8184428620546035,38.5465985782892,95.5362041879729
154,140.73,0.3418307710264195,0.8127507952523197,38.438560564436166,95.5362041879729
155,140.841,0.3405870165104272,0.8070687639504236,38.33063777020374,95.5362041879729
156,140.946,0.3394562481673334,0.8016891965550617,38.22858082777199,95.5362041879729
157,141.057,0.33814299967495964,0.7960145810350302,38.12060664186447,95.5362041879729
158,141.168,0.336827411974439,0.7903190164346612,38.012498455407545,95.5362041879729
159,141.276,0.3356239312850771,0.7847546982741639,37.907277327026776,95.5362041879729
160,141.384,0.3344144314656323,0.779181646828798,37.801993416108346,95.5362041879729
161,141.492,0.33328166202625376,0.7735776302900047,37.69661626602561,95.5362041879729
162,141.597,0.3323239665543279,0.7680917246369958,37.59410013878982,95.5362041879729
163,141.708,0.3312410005425974,0.7622976340752026,37.485678997973054,95.5362041879729
164,141.816,0.3301290600226226,0.7566789375847056,37.38023586623091,95.5362041879729
165,141.927,0.32904001269557315,0.750887821234457,37.27182626249389,95.5362041879729
166,142.038,0.3279108601513595,0.7450879431803643,37.16331333906357,95.5362041879729
167,142.143,0.32698728949193123,0.7395661384579467,37.06060753445525,95.5362041879729
168,142.257,0.3258166567700323,0.733578193944818,36.948951699916506,95.5362041879729
169,142.365,0.3246615908795356,0.7279207721328276,36.84321118897859,95.5362041879729
170,142.473,0.3234329868287076,0.722260811442519,36.73735778114692,95.5362041879729
171,142.581,0.32232573196620834,0.7165924854032028,36.631608772787274,95.5362041879729
172,142.689,0.32134210865770985,0.7108930498146575,36.52580708378274,95.5362041879729
173,142.8,0.32033643453831206,0.7050307783367954,36.41704368270054,95.5362041879729
174,142.908,0.3191972729906503,0.6993523625579791,36.31119167171302,95.5362041879729
175,143.016,0.3181073113596702,0.693682360479078,36.20545318854386,95.5362041879729
176,143.124,0.3169782756052867,0.6880313826944594,36.09978608565549,95.5362041879729
177,143.232,0.3159419562140772,0.6823890323020032,35.99428494399672,95.5362041879729
178,143.34,0.31473372062320887,0.6767590733375747,35.888646728228494,95.5362041879729
179,143.448,0.3136560519491293,0.6710950956627855,35.782960893636364,95.5362041879729
180,143.562,0.3126674800494507,0.6650976225448118,35.67145161232471,95.5362041879729
181,143.67,0.31158753163403446,0.659421636167295,35.565687549378694,95.5362041879729
182,143.781,0.30565676896953115,0.6591224039058424,35.456985595795295,95.5362041879729
183,143.886,0.30004658807067663,0.6588393463612252,35.35415942348667,95.5362041879729
184,143.994,0.29427611628899775,0.6585482014581905,35.248395360540655,95.5362041879729
185,144.102,0.28850564450731886,0.6582570565551557,35.14263129759464,95.5362041879729
186,144.21,0.28273517272563997,0.6579659116521208,35.036867234648625,95.5362041879729
187,144.318,0.2769647009439611,0.657674766749086,34.93110317170261,95.5362041879729
188,144.426,0.2711942291622822,0.6573836218460511,34.825339108756594,95.5362041879729
189,144.534,0.2654237573806033,0.6570924769430163,34.71957504581058,95.5362041879729
190,144.642,0.2596532855989244,0.6568013320399815,34.613810982864564,95.5362041879729
191,144.75,0.25388281381724553,0.6565101871369465,34.50804691991855,95.5362041879729
192,144.897,0.24602856055884925,0.6561139065744824,44.364090278686476,95.5362041879729
193,145.002,0.2404212880582147,0.6558765211424757,44.261296246858194,95.5362041879729
194,145.107,0.23479578850211208,0.6555736110247992,44.15836555104237,95.5362041879729
195,145.215,0.22903000482129854,0.6554210683409586,44.052665556323944,95.5362041879729
196,145.314,0.22376458613930153,0.6551742914512038,43.95587599170404,95.5362041879729
197,145.422,0.21801043868442999,0.6550079037412238,43.85024798806767,95.5362041879729
198,145.524,0.21256963853394978,0.654706929474619,43.750409011195934,95.5362041879729
199,145.629,0.2069954354983901,0.6542371182793394,43.64773228218513,95.5362041879729
200,145.734,0.20145018103050435,0.6536483491083063,43.54516783046088,95.5362041879729
201,145.839,0.1959191305465554,0.6529938278107789,43.44264677552522,95.5362041879729
202,145.941,0.19053825911037425,0.6524187766814409,43.34304848041674,95.5362041879729
203,146.046,0.18496153716459163,0.6519602510758602,43.24036167833983,95.5362041879729
204,146.154,0.18081492921326278,0.6559515443730326,43.13474096763215,95.5362041879729
205,146.259,0.17678350481613753,0.6598319684119501,43.03205416555524,95.5362041879729
206,146.364,0.17275208041901224,0.6637123924508678,42.92936736347833,95.5362041879729
207,146.469,0.16872065602188696,0.6675928164897853,42.82668056140142,95.5362041879729
208,146.574,0.16468923162476173,0.6714732405287029,42.72399375932451,95.5362041879729
209,146.688,0.16031225656502573,0.675686272342385,42.612505231355286,95.5362041879729
210,146.793,0.15628083216790048,0.6795666963813025,42.509818429278376,95.5362041879729
211,146.904,0.15201904066236807,0.6836688589367298,42.40126380993993,95.5362041879729
212,147.012,0.14787243271103923,0.6876601522339022,42.295643099232244,95.5362041879729
213,147.12,0.14372582475971038,0.6916514455310746,42.19002238852456,95.5362041879729
214,147.228,0.13957921680838153,0.695642738828247,42.08440167781688,95.5362041879729
215,147.339,0.13531742530284913,0.6997449013836742,41.97584705847843,95.5362041879729
216,147.45,0.13105563379731672,0.7038470639391015,41.86729243913998,95.5362041879729
217,147.558,0.1269090258459879,0.7078383572362739,41.7616717284323,95.5362041879729
218,147.666,0.12276241789465905,0.7118296505334463,41.656051017724614,95.5362041879729
219,147.777,0.11850062638912665,0.7159318130888734,41.547496398386166,95.5362041879729
220,147.897,0.11389328422098348,0.720366583419065,41.430140053155405,95.5362041879729
221,148.011,0.10951630916124748,0.724579615232747,41.31865152518618,95.5362041879729
222,148.119,0.10536970120991865,0.7285709085299195,41.2130308144785,95.5362041879729
223,148.227,0.1012230932585898,0.7325622018270919,41.10741010377082,95.5362041879729
224,148.335,0.09707648530726097,0.7365534951242643,51.001789393063135,95.5362041879729
225,148.443,0.09140362586456315,0.7355821839334139,50.89616868235545,95.5362041879729
226,148.554,0.08557318699290148,0.734583891876151,50.787614063017,95.5362041879729
227,148.665,0.07974274812123983,0.7335855998188882,50.679059443678554,95.5362041879729
228,148.773,0.074069888678542,0.7326142886280378,50.57343873297087,95.5362041879729
229,148.884,0.06823944980688033,0.731615996570775,50.46488411363242,95.5362041879729
230,148.989,0.06272416979314634,0.7306716662463372,50.36219731155551,95.5362041879729
231,149.1,0.05689373092148468,0.7296733741890743,60.25364269221706,95.5362041879729
232,149.208,0.05136973687422238,0.7312890070223281,60.14802198150938,95.5362041879729
233,149.313,0.04599918710605071,0.7328597611657693,60.04533517943247,95.5362041879729
