,t,x,y,energy,sight
0,171.228,0.701620656071163,0.9781066549209145,49.899875668988955,98.08660134220439
1,171.333,0.6977367136918146,0.9811092356164968,49.79979600209233,98.08660134220439
2,171.435,0.6939285614792202,0.9839554989617539,49.70266968080412,98.08660134220439
3,171.537,0.6900981872075953,0.9867528093255812,49.605615144358694,98.08660134220439
4,171.636,0.6864425938624692,0.9792250882086965,49.511516063325914,98.08660134220439
5,171.738,0.6826518800528942,0.9763684526498952,49.41443915935525,98.08660134220439
6,171.843,0.6786720580480406,0.9735404147829568,49.31453186555604,98.08660134220439
7,171.948,0.6747040122906458,0.9706499609306972,49.21445245198576,98.08660134220439
8,172.05,0.6709008491545954,0.9678059005025228,49.117360145977955,98.08660134220439
9,172.155,0.6670533372471942,0.9647871330847391,49.017400773682695,98.08660134220439
10,172.26,0.6685653299007216,0.960136307048867,48.917441401387435,98.08660134220439
11,172.365,0.6700773225542489,0.9554854810129949,48.817482029092176,98.08660134220439
12,172.467,0.6715461154176755,0.950967535721005,48.7203786388625,98.08660134220439
13,172.569,0.6730149082811021,0.946449590429015,48.62327524863282,98.08660134220439
14,172.674,0.6745269009346295,0.9417987643931429,48.52331587633756,98.08660134220439
15,172.779,0.6760388935881568,0.9371479383572708,48.4233565040423,98.08660134220439
16,172.881,0.6775076864515835,0.9326299930652808,48.326253113812626,98.08660134220439
17,172.986,0.6790196791051109,0.9279791670294089,48.22629374151737,98.08660134220439
18,173.091,0.6805316717586383,0.9233283409935368,48.12633436922211,98.08660134220439
19,173.193,0.682000464622065,0.9188103957015468,48.02923097899243,98.08660134220439
20,173.298,0.6835124572755923,0.9141595696656747,47.92927160669717,98.08660134220439
21,173.403,0.6850244499291197,0.9095087436298026,47.82931223440191,98.08660134220439
22,173.505,0.6864932427925463,0.9049907983378127,47.732208844172234,98.08660134220439
23,173.613,0.6878952690396724,0.900184439216356,47.62954378971144,98.08660134220439
24,173.718,0.6892348993493845,0.8954996272113315,47.52969863245118,98.08660134220439
25,173.823,0.6906017271586753,0.8908400334071954,47.429960074988045,98.08660134220439
26,173.928,0.6918988975524938,0.8861764431987311,47.33031940494912,98.08660134220439
27,174.033,0.6932225980961897,0.8814972615960505,47.23053679836171,98.08660134220439
28,174.135,0.6945376400860522,0.8769684523514962,47.133656328724825,98.08660134220439
29,174.24,0.6959641641412466,0.8723193133718441,47.0338720503708,98.08660134220439
30,174.348,0.6974959222467261,0.8675753673751527,46.93134500316075,98.08660134220439
31,174.492,0.6995936082481288,0.8612857159511199,46.79474836889891,98.08660134220439
32,174.594,0.7011815221352997,0.8568811262012241,46.698084162346625,98.08660134220439
33,174.696,0.7027916982480387,0.8524809017252775,46.60139757330602,98.08660134220439
34,174.798,0.704372318752848,0.8480913508977814,46.50483973995724,98.08660134220439
35,174.897,0.7059725057973578,0.8438583171081622,46.411140073643594,98.08660134220439
36,174.999,0.7075240772699928,0.8394895221584278,46.314769923761496,98.08660134220439
37,175.098,0.7089101573902188,0.835230533777058,46.22136805342129,98.08660134220439
38,175.2,0.7104178925263629,0.8308905303734788,46.12526473745506,98.08660134220439
39,175.299,0.7118274799498778,0.8266848180322878,46.03213944792656,98.08660134220439
40,175.398,0.7132145694008164,0.8224848710057303,45.93909462571635,98.08660134220439
41,175.5,0.7147585430467386,0.8181808364613754,45.8431311687325,98.08660134220439
42,175.599,0.7163448049622125,0.814059815377733,45.75013307156817,98.08660134220439
43,175.698,0.717826994314436,0.809904671059207,45.65716175082813,98.08660134220439
44,175.8,0.719400273731292,0.8056597189401113,45.561489286053465,98.08660134220439
45,175.899,0.7210100466064324,0.8015459354417173,45.468479928416805,98.08660134220439
46,176.001,0.7226162960040913,0.7972985321722401,45.37271878702367,98.08660134220439
47,176.1,0.7242213197970175,0.7931841838646161,45.27971712342481,98.08660134220439
48,176.199,0.7258968772584862,0.789095662332158,45.186701306630724,98.08660134220439
49,176.298,0.7276452567519008,0.7850501253038533,45.093758223050514,98.08660134220439
50,176.397,0.7294203406154461,0.7810090805551932,45.00077322833413,98.08660134220439
51,176.499,0.7313266492534893,0.7769050573129683,44.90511335334588,98.08660134220439
52,176.598,0.7332974176610767,0.7729698390841803,44.81220901873877,98.08660134220439
53,176.703,0.7354323483111558,0.7687906723349871,44.713513801531214,98.08660134220439
54,176.805,0.737541287528984,0.7647465589479849,44.61762468331041,98.08660134220439
55,176.907,0.7396376405547738,0.7606790059907468,44.52163945938472,98.08660134220439
56,177.009,0.7417393630096039,0.7566170139999139,44.42567009073576,98.08660134220439
57,177.108,0.7438469728707557,0.7526948256553687,44.3324363412995,98.08660134220439
58,177.213,0.746027229841207,0.7484815715945501,44.23341446151654,98.08660134220439
59,177.312,0.7480131675833804,0.7444679228644268,44.14001750376544,98.08660134220439
60,177.423,0.7501937244980919,0.7399470531841916,44.03531007815456,98.08660134220439
61,177.528,0.7523327781328608,0.735694641982742,43.93618481757223,98.08660134220439
62,177.63,0.7544933443210428,0.7316161678472353,43.8399473129383,98.08660134220439
63,177.732,0.756563278275864,0.7274876260796153,43.74369075746465,98.08660134220439
64,177.834,0.7587056586936731,0.7233735051734589,43.6473053978843,98.08660134220439
65,177.933,0.7606912191129501,0.7193425812596399,43.55381037117173,98.08660134220439
66,178.035,0.7627318931568785,0.7152154288549151,43.45764524176181,98.08660134220439
67,178.134,0.7646123574312059,0.7111476988238853,43.36422739084239,98.08660134220439
68,178.233,0.7690616720481818,0.7116826501595497,43.270809539922965,98.08660134220439
69,178.329,0.7733761589494916,0.7122013908486788,43.180222532970795,98.08660134220439
70,178.431,0.7779603012821334,0.7127525528308787,43.08397383808411,98.08660134220439
71,178.53,0.7824096158991092,0.7132875041665431,42.99055598716469,98.08660134220439
72,178.632,0.786993758231751,0.7138386661487428,42.89430729227801,98.08660134220439
73,178.734,0.7915779005643928,0.7143898281309425,42.798058597391325,98.08660134220439
74,178.836,0.7961620428970345,0.7149409901131423,42.70180990250464,98.08660134220439
75,178.935,0.8006113575140104,0.7154759414488068,42.60839205158522,98.08660134220439
76,179.034,0.8050606721309862,0.7160108927844712,42.5149742006658,98.08660134220439
77,179.136,0.8096448144636279,0.7165620547666709,42.418725505779115,98.08660134220439
78,179.232,0.8139593013649378,0.7170807954558001,42.328138498826945,98.08660134220439
79,179.334,0.8185434436975795,0.7176319574379998,42.23188980394026,98.08660134220439
80,179.439,0.8232624137458873,0.7181993300667349,42.13281026508633,98.08660134220439
81,179.541,0.8278465560785289,0.7187504920489346,42.036561570199645,98.08660134220439
82,179.643,0.8324306984111706,0.7193016540311343,41.94031287531296,98.08660134220439
83,179.745,0.8370148407438123,0.7198528160133341,41.84406418042628,98.08660134220439
84,179.85,0.84173381079212,0.7204201886420691,41.744984641572344,98.08660134220439
85,179.952,0.8463234238154873,0.7210780554167285,41.648612011762346,98.08660134220439
86,180.06,0.8511636323572056,0.7218766008086966,41.546593569540356,98.08660134220439
87,180.162,0.855744360451494,0.7225335474438664,41.45027806345055,98.08660134220439
88,180.27,0.8606216025889445,0.7231067836376872,41.348226503191796,98.08660134220439
89,180.375,0.8653754333894849,0.7236464751029063,41.24894592905988,98.08660134220439
90,180.483,0.8702651371355374,0.7241422685102067,41.146869015750845,98.08660134220439
91,180.588,0.8750491238388834,0.7244819102297458,41.047513815145145,98.08660134220439
92,180.69,0.8796856060045377,0.7248141717906438,40.951065343803045,98.08660134220439
93,180.795,0.8844483404646626,0.7252014876162716,40.85182259686774,98.08660134220439
94,180.897,0.8890722409498263,0.7255964886401732,40.755422962468295,98.08660134220439
95,180.996,0.8935571691156916,0.72611642443224,40.66179002608855,98.08660134220439
96,181.101,0.8983294966028641,0.7265253978437651,40.56247456164938,98.08660134220439
97,181.203,0.9029822991540583,0.7269271021992484,40.465886961502584,98.08660134220439
98,181.305,0.9076402865815444,0.7273029054728015,40.369280087853745,98.08660134220439
99,181.41,0.9124466288564465,0.7276147226884019,40.269794209877546,98.08660134220439
100,181.515,0.9172737912918677,0.7278359450682633,40.17020732372815,98.08660134220439
101,181.62,0.922118611913786,0.7279359241101583,40.07053324928765,98.08660134220439
102,181.725,0.9269795394633027,0.7280573085971808,39.97075299386736,98.08660134220439
103,181.83,0.9318355104507043,0.7280305690953883,39.87101368743888,98.08660134220439
104,181.929,0.936391230440438,0.7280017158243575,39.777119337857314,98.08660134220439
105,182.034,0.9412273764199952,0.7280847858217803,39.677502816953144,98.08660134220439
106,182.136,0.9459111519637802,0.728224973851048,39.58081434066563,98.08660134220439
107,182.241,0.9507191050540416,0.728383308736859,39.48136613882553,98.08660134220439
108,182.349,0.9556361190702118,0.7286595821839176,39.37922526156296,98.08660134220439
109,182.454,0.9604215259864288,0.7289863706714185,39.27986670850348,98.08660134220439
110,182.559,0.9652153212720425,0.7293232497787461,39.180450134753535,98.08660134220439
111,182.664,0.9699825361019843,0.7296714446171048,39.08119806486145,98.08660134220439
112,182.772,0.9748740978572435,0.7301408540403664,38.979125899856925,98.08660134220439
113,182.877,0.9796506855368905,0.7306390668086368,38.87972927920135,98.08660134220439
114,182.979,0.9842680592001019,0.7311034221559323,38.783330138569376,98.08660134220439
115,183.087,0.9891887350820194,0.731467483943939,38.68112938391369,98.08660134220439
116,183.192,0.9747819077451775,0.7317728719554177,38.58181849757463,98.08660134220439
117,183.3,0.9698676145462881,0.7319405412136533,38.47972636736098,98.08660134220439
118,183.405,0.9650632927086304,0.7321235211435578,38.38029579371824,98.08660134220439
119,183.51,0.9602741603160275,0.7322333344184755,38.280976668978326,98.08660134220439
120,183.615,0.9554672806320182,0.7322702505654677,38.1815511108402,98.08660134220439
121,183.717,0.9508107493164714,0.7321763353580695,38.08504436091477,98.08660134220439
122,183.819,0.9461674816608122,0.7321722949530105,37.98862854775525,98.08660134220439
123,183.921,0.9415267302148956,0.7320632191260492,37.89222064685275,98.08660134220439
124,184.023,0.936873090699002,0.731822416535164,37.79569861863459,98.08660134220439
125,184.125,0.9322260268339703,0.7314931885923146,37.69918397559724,98.08660134220439
126,184.233,0.9272853894216038,0.7312621649850242,37.596906993632025,98.08660134220439
127,184.335,0.9226127794126416,0.7311613214919488,37.500296437032695,98.08660134220439
128,184.44,0.9178061640579737,0.7311430870825011,37.40087325646669,98.08660134220439
129,184.542,0.9131491333634308,0.7311781185658773,37.30436852786777,98.08660134220439
130,184.65,0.9082337650782117,0.7312416106044154,37.202285193570766,98.08660134220439
131,184.755,0.9034719392197499,0.7314299779581954,37.10312505198405,98.08660134220439
132,184.86,0.8986921559898097,0.7317686572507744,37.00379712197328,98.08660134220439
133,184.962,0.8940564793360947,0.7321793006624611,36.90731372629982,98.08660134220439
134,185.067,0.8892612771216977,0.7326151327162329,36.807837312144066,98.08660134220439
135,185.175,0.8843109776326156,0.7329462380025149,36.70546225344099,98.08660134220439
136,185.28,0.8794978835099485,0.7334163440044976,36.60585124660451,98.08660134220439
137,185.385,0.8746959126203153,0.7339755641705821,36.50625031457545,98.08660134220439
138,185.493,0.8697623423569685,0.7344044270544071,36.40393404051969,98.08660134220439
139,185.601,0.8648480113947687,0.7348386961220467,36.301737406784646,98.08660134220439
140,185.706,0.8600573191819878,0.7352480230476275,36.20230464315764,98.08660134220439
141,185.814,0.8551071097364907,0.7357143535077927,36.099860683345575,98.08660134220439
142,185.919,0.8503005098805646,0.7361559502150298,36.00030826953953,98.08660134220439
143,186.024,0.8454841351588567,0.7366026372378209,35.900690566934955,98.08660134220439
144,186.129,0.8406557213527315,0.7369208272489257,35.80106107093626,98.08660134220439
145,186.234,0.8358198986706904,0.737253417188034,35.70137807342131,98.08660134220439
146,186.339,0.8309702360397659,0.7375664462555267,35.60161502300314,98.08660134220439
147,186.447,0.825997843181636,0.7380375410392606,35.499026850832124,98.08660134220439
148,186.549,0.8213191100155115,0.7384240463061701,35.40228207122548,98.08660134220439
149,186.66,0.8162456209731767,0.7389289221336537,35.29706727968777,98.08660134220439
150,186.765,0.811419612611839,0.7393646874857094,35.19739454879018,98.08660134220439
151,186.867,0.8067433065793571,0.7398716109626253,35.10059196910749,98.08660134220439
152,186.969,0.802088854593079,0.7404065349335001,35.00390850512432,98.08660134220439
153,187.074,0.7972910431431453,0.7410308548982337,34.90428301337249,98.08660134220439
154,187.176,0.7926267740410005,0.7416851012602873,34.807440569772986,98.08660134220439
155,187.284,0.787696014946646,0.7422828727364387,34.70503030138713,98.08660134220439
156,187.386,0.7830126414751779,0.7427148651515674,34.608230582566634,98.08660134220439
157,187.491,0.778202398110429,0.7431500228487105,34.50865868812872,98.08660134220439
158,187.596,0.7734055090893499,0.7437102388260758,34.40908932286582,98.08660134220439
159,187.701,0.7685996192042776,0.7441615135300327,34.30953570473884,98.08660134220439
160,187.806,0.7637949520811896,0.7446906672402552,34.209939288527,98.08660134220439
161,187.911,0.7589717678637468,0.7451979618823862,34.11024001765438,98.08660134220439
162,188.013,0.7543077683013626,0.7456744336182681,34.013536172320045,98.08660134220439
163,188.118,0.7494923102918836,0.7462313115139666,33.91385122621219,98.08660134220439
164,188.223,0.7446943559727686,0.7466987847420004,33.814338292301294,98.08660134220439
165,188.328,0.7398777501710304,0.7471441558496628,33.714719893665134,98.08660134220439
166,188.433,0.7350414542054429,0.7476405311458161,33.61494437942233,98.08660134220439
167,188.535,0.7303346553098549,0.7481695119295523,33.51793233353159,98.08660134220439
168,188.709,0.7222652658592993,0.7490276687840596,33.35221656436695,98.08660134220439
169,188.814,0.717365735895259,0.749423476698244,33.25209679711984,98.08660134220439
170,188.922,0.712346202668188,0.7497997790998625,33.14925928441106,98.08660134220439
171,189.024,0.7075922449430853,0.7501427277504746,33.05205600021052,98.08660134220439
172,189.132,0.7025402672767361,0.7504006136673043,32.94905889220809,98.08660134220439
173,189.237,0.697620735705327,0.7507940929638537,32.84881272036752,98.08660134220439
174,189.342,0.6926676573923889,0.751081040543004,32.74839924667061,98.08660134220439
175,189.462,0.6870296999813412,0.7512482916715065,32.633831164735994,98.08660134220439
176,189.564,0.6822417874808002,0.751496187525394,32.53644859164396,98.08660134220439
177,189.669,0.677338362436563,0.7517272829585693,32.43637121731517,98.08660134220439
178,189.78,0.6721531599141672,0.7521002121743857,32.33051611728973,98.08660134220439
179,189.885,0.6672480157193525,0.7524888601206909,32.23036418803742,98.08660134220439
180,189.987,0.6624816785807164,0.7529299275615664,32.13303041022236,98.08660134220439
181,190.092,0.6576009064054966,0.753396182875651,32.03299064016154,98.08660134220439
182,190.194,0.6528458934949252,0.7539259953479815,31.93567134667125,98.08660134220439
183,190.299,0.6479620072535556,0.7546249770396679,31.8354353541207,98.08660134220439
184,190.404,0.6430599612210491,0.7553009287338208,31.735104776956632,98.08660134220439
185,190.509,0.6381418365764403,0.7558292565915324,31.634787061852634,98.08660134220439
186,190.614,0.6331990644615308,0.7563339043987259,31.534328251302124,98.08660134220439
187,190.722,0.6280996335493199,0.7567770153900801,31.43094656011863,98.08660134220439
188,190.824,0.6233053703518113,0.7572535534371405,31.3334131857897,98.08660134220439
189,190.929,0.6183985388628692,0.7578345412174835,31.23312947766926,98.08660134220439
190,191.034,0.6134850340921268,0.7583754471962836,31.132832453007516,98.08660134220439
191,191.139,0.6085595491773453,0.7588469910543337,31.03250459891953,98.08660134220439
192,191.244,0.6036512878588023,0.7594598957422991,30.93218714195394,98.08660134220439
193,191.349,0.5987310573624796,0.7601686290992636,30.831712037259468,98.08660134220439
194,191.454,0.5938339914336287,0.7609341487507163,30.731329569179866,98.08660134220439
195,191.559,0.5889226542521693,0.761617531965836,30.630933565197807,98.08660134220439
196,191.664,0.5840044631076658,0.7624271138181933,30.530372923220423,98.08660134220439
197,191.769,0.5887442207881709,0.7608848025527115,30.429812281243038,98.08660134220439
198,191.871,0.5933485568206616,0.7593865573233864,30.332124800465007,98.08660134220439
199,191.976,0.5980883145011667,0.7578442460579048,30.231564158487622,98.08660134220439
200,192.081,0.6028280721816718,0.756301934792423,30.131003516510237,98.08660134220439
201,192.186,0.607567829862177,0.7547596235269414,30.030442874532852,98.08660134220439
202,192.297,0.6125784308387108,0.7531291801891464,29.92413591015676,98.08660134220439
203,192.402,0.6173181885192159,0.7515868689236647,39.82357526817938,98.08660134220439
204,192.51,0.6222071577105383,0.750106538675451,39.720260629312484,98.08660134220439
205,192.612,0.6268184505942966,0.7486331571658619,39.6225796086876,98.08660134220439
206,192.717,0.6315212768846227,0.7469975537730289,39.522052531314095,98.08660134220439
207,192.828,0.6365428304675016,0.7453552562472896,39.41565539739241,98.08660134220439
208,192.933,0.6412515062723652,0.7437275053342629,39.31510941323333,98.08660134220439
209,193.035,0.6458105880685356,0.7420993874983254,39.21742765267828,98.08660134220439
210,193.137,0.6503854362853358,0.7404756426951289,39.1196602187761,98.08660134220439
211,193.242,0.6550443668077509,0.7387227720576519,39.01914187310773,98.08660134220439
212,193.344,0.6595185946705067,0.7369070213958644,38.92153975368167,98.08660134220439
213,193.449,0.6640590273263968,0.7349473318324543,38.821229264639456,98.08660134220439
214,193.554,0.6686660723346789,0.7331054336688317,38.72081441789308,98.08660134220439
215,193.659,0.6732379414872252,0.7312159714215205,38.62049348460184,98.08660134220439
216,193.764,0.6778734648534839,0.7294368222443559,38.520055430511135,98.08660134220439
217,193.869,0.6824891838798189,0.7276760356516008,38.41977775271133,98.08660134220439
218,193.977,0.687258942048908,0.7259590815805306,38.31671142412153,98.08660134220439
219,194.082,0.6919166786754005,0.7243709467105682,38.21655611586156,98.08660134220439
220,194.19,0.6966786051706532,0.7226015496498999,38.11342156768033,98.08660134220439
221,194.295,0.7013144632118411,0.7208393948851899,38.013020321634485,98.08660134220439
222,194.397,0.7058544391015248,0.7191836281462842,37.91539350667278,98.08660134220439
223,194.505,0.7107119930847846,0.7175493829219899,37.81197055232831,98.08660134220439
224,194.61,0.7153927335666093,0.7158351443631497,37.71140739482386,98.08660134220439
225,194.718,0.7202406647762666,0.714149577343745,37.60793640782374,98.08660134220439
226,194.82,0.724771770307331,0.7124646471201238,37.510298362513545,98.08660134220439
227,194.925,0.7294728771050317,0.7107914692865357,37.4097018511141,98.08660134220439
228,195.03,0.734141476608156,0.7089654302443769,37.30895798491367,98.08660134220439
229,195.135,0.7387949687615211,0.7070748497435433,37.20815095722998,98.08660134220439
230,195.243,0.7435868931810079,0.7051678382414341,37.10452096024496,98.08660134220439
231,195.348,0.7482494132033288,0.7032521951017306,37.00359977988338,98.08660134220439
232,195.453,0.7529202781381683,0.7014090131680758,36.90280230032126,98.08660134220439
