,t,x,y,energy,sight
0,179.745,0.29558766969229705,0.752132210278425,49.90938028484885,86.35161090300005
1,179.85,0.29093771657220413,0.7499426195744862,49.81604016725803,86.35161090300005
2,179.952,0.2864480879000593,0.7478029872712777,49.7254912575091,86.35161090300005
3,180.06,0.2816694620057626,0.7456170936009563,49.6296870892926,86.35161090300005
4,180.162,0.2771579941462105,0.7435674030143391,49.53925434790803,86.35161090300005
5,180.27,0.2724436029651089,0.7412507754529603,49.44346306115836,86.35161090300005
6,180.375,0.267874224246205,0.7389505002095786,49.35027638998415,86.35161090300005
7,180.483,0.2631487547993193,0.7366159214802718,49.254370725334695,86.35161090300005
8,180.588,0.25862646217955676,0.7342645368197137,49.161303338542766,86.35161090300005
9,180.69,0.25428125530270385,0.731893785304303,49.07090502823714,86.35161090300005
10,180.795,0.24987467070671682,0.7293610163987962,48.97793020811523,86.35161090300005
11,180.897,0.24559159855147,0.7269369615084382,48.88771378127183,86.35161090300005
12,180.996,0.24145902576532405,0.724565588668638,48.800228174768705,86.35161090300005
13,181.101,0.23702324904041286,0.722102231717104,48.70730922499445,86.35161090300005
14,181.203,0.23278318226466288,0.7195871658936926,48.61703889398145,86.35161090300005
15,181.305,0.22858677552454068,0.7169697823083794,48.52666694467151,86.35161090300005
16,181.41,0.22418292204527962,0.7143684354586247,48.43348625228524,86.35161090300005
17,181.515,0.21971568810009234,0.7118936536048184,48.34035577871859,86.35161090300005
18,181.62,0.2152706631708643,0.7093891798785854,48.24725670603508,86.35161090300005
19,181.725,0.21075556285192013,0.7069687457914646,48.15402368880993,86.35161090300005
20,181.83,0.20616498716860368,0.7046664896865388,48.06071010693168,86.35161090300005
21,181.929,0.20176377449438604,0.7026027738514802,47.97260746266957,86.35161090300005
22,182.034,0.197056237881117,0.7005147948963526,47.8792025423094,86.35161090300005
23,182.136,0.19244879363746653,0.6986087625546065,47.78857220888237,86.35161090300005
24,182.241,0.18778247760937516,0.696506197188868,47.69537002943409,86.35161090300005
25,182.349,0.18297241438523698,0.6943309612865182,47.5994109553131,86.35161090300005
26,182.454,0.17825376939879772,0.6923684298526387,47.5062576715831,86.35161090300005
27,182.559,0.17348084342593834,0.690480086205739,47.41296098291537,86.35161090300005
28,182.664,0.1687593990308383,0.6885102338962088,47.31977314376752,86.35161090300005
29,182.772,0.16390065375535323,0.6865261722390433,47.224011319125225,86.35161090300005
30,182.877,0.159251675468651,0.6844603964482935,47.13100659261827,86.35161090300005
31,182.979,0.15479210094263013,0.6823491702710373,47.04070942704986,86.35161090300005
32,183.087,0.15009704196239027,0.6800937573327526,46.94520064208631,86.35161090300005
33,183.192,0.14549154235329498,0.6779775243015224,46.852316508014084,86.35161090300005
34,183.3,0.14075408972844222,0.6758017094776425,46.756778761799914,86.35161090300005
35,183.405,0.1361664961354606,0.6736527418363856,46.663910410466734,86.35161090300005
36,183.51,0.1315506746590494,0.6715835292208099,46.57109049867487,86.35161090300005
37,183.615,0.12701594110080422,0.6694038919534534,46.47844363930512,86.35161090300005
38,183.717,0.12257458854348188,0.6674274739368407,46.38861248520511,86.35161090300005
39,183.819,0.11818820988729577,0.6653680748355817,46.29888049119021,86.35161090300005
40,183.921,0.11387941080279003,0.6632093986232607,46.20931788902273,86.35161090300005
41,184.023,0.10953659335977242,0.6611396799480288,46.11980967221317,86.35161090300005
42,184.125,0.10517115050047872,0.659130490127812,46.03033464108999,86.35161090300005
43,184.233,0.10054317962090784,0.6570202766572308,45.935608741188,86.35161090300005
44,184.335,0.09622630724212176,0.65491995478862,45.84616515337811,86.35161090300005
45,184.44,0.09185010242888379,0.652625817732264,45.754096138463304,86.35161090300005
46,184.542,0.08766165151187572,0.6502892097675962,45.664681814460124,86.35161090300005
47,184.65,0.08317492388127387,0.6479388411773364,45.57009219192973,86.35161090300005
48,184.755,0.0801033691717192,0.6440898115474913,45.47813005891407,86.35161090300005
49,184.86,0.07703181446216452,0.6402407819176463,45.386167925898405,86.35161090300005
50,184.962,0.07404801845859713,0.6365017245629396,45.29683328239748,86.35161090300005
51,185.067,0.07097646374904244,0.6326526949330946,45.204871149381816,86.35161090300005
52,185.175,0.06781715033350048,0.6286936930281113,45.11028152685142,86.35161090300005
53,185.28,0.06474559562394581,0.6248446633982663,45.01831939383576,86.35161090300005
54,185.385,0.061674040914391146,0.6209956337684213,44.9263572608201,86.35161090300005
55,185.493,0.058514727498849194,0.6170366318634378,44.831767638289705,86.35161090300005
56,185.601,0.05535541408330724,0.6130776299584544,44.73717801575931,86.35161090300005
57,185.706,0.05228385937375257,0.6092286003286094,44.64521588274365,86.35161090300005
58,185.814,0.04912454595821063,0.6052695984236259,44.55062626021326,86.35161090300005
59,185.919,0.04605299124865596,0.6014205687937809,44.45866412719759,86.35161090300005
60,186.024,0.04298143653910129,0.5975715391639359,44.36670199418193,86.35161090300005
61,186.129,0.03990988182954662,0.5937225095340909,44.27473986116627,86.35161090300005
62,186.234,0.03683832711999195,0.5898734799042459,44.182777728150604,86.35161090300005
63,186.339,0.03376677241043728,0.5860244502744009,44.09081559513494,86.35161090300005
64,186.447,0.030607458994895337,0.5820654483694174,43.99622597260455,86.35161090300005
65,186.549,0.027623662991327947,0.5783263910147108,43.90689132910362,86.35161090300005
66,186.66,0.02437659086979873,0.574257416834589,43.80967421705849,86.35161090300005
67,186.765,0.02130503616024406,0.570408387204744,43.71771208404283,86.35161090300005
68,186.867,0.01832124015667667,0.5666693298500374,53.628377440541904,86.35161090300005
69,186.969,0.015417831239664077,0.5628769585938584,53.53909081477417,86.35161090300005
70,187.074,0.01885233650200861,0.5589826468816614,53.44710425801044,86.35161090300005
71,187.176,0.02172559196657084,0.5551313584592933,53.35763316627463,86.35161090300005
72,187.284,0.024693546792621764,0.5509958489990299,53.262882061118056,86.35161090300005
73,187.386,0.027438729336018923,0.5470616942944974,53.1734605704579,86.35161090300005
74,187.491,0.030365444224911255,0.5430660712293295,53.08131624120549,86.35161090300005
75,187.596,0.0332347847938463,0.5390294285586907,52.989173891883496,86.35161090300005
76,187.701,0.03618705683925237,0.5350280072275391,52.89690278180737,86.35161090300005
77,187.806,0.03902775873153121,0.5309207009875014,52.80449536444333,86.35161090300005
78,187.911,0.041921386329272135,0.5268533430221617,52.712102733372866,86.35161090300005
79,188.013,0.04463988681239715,0.522823156353344,52.62227104690674,86.35161090300005
80,188.118,0.04729555835627042,0.5186075777189221,52.529937954388245,86.35161090300005
81,188.223,0.049863866463043985,0.5143431433950022,52.437631905103025,86.35161090300005
82,188.328,0.05257278349230473,0.5101362813626606,52.345162797158835,86.35161090300005
83,188.433,0.0553637917347064,0.5059933737420811,52.25274650067182,86.35161090300005
84,188.535,0.05811008212986971,0.502001713729715,52.16301845710211,86.35161090300005
85,188.709,0.06259574605749456,0.4950778069687666,52.010050912060606,86.35161090300005
86,188.814,0.06540908959525019,0.4909968684025787,51.917881848551104,86.35161090300005
87,188.922,0.06836730289807125,0.48683283152064627,51.82301838763322,86.35161090300005
88,189.024,0.07103158039129208,0.482835751703954,51.73355595333687,86.35161090300005
89,189.132,0.07396439742251151,0.47865717866274593,51.63871025228104,86.35161090300005
90,189.237,0.07684784345818066,0.474601207553863,51.5464147751542,86.35161090300005
91,189.342,0.07986266720382965,0.4706227886016948,51.45402182477796,86.35161090300005
92,189.462,0.08338262720872786,0.4661160598939432,51.34834242713649,86.35161090300005
93,189.564,0.08642060113892965,0.46231631924553607,51.25848793055526,86.35161090300005
94,189.669,0.08962483562202048,0.4584462427918474,51.16588563335703,86.35161090300005
95,189.78,0.09303080812335761,0.454370285511695,51.067990609761765,86.35161090300005
96,189.885,0.09634879421286018,0.4505772648065031,50.975292013903875,86.35161090300005
97,189.987,0.09967395789297818,0.4469522495826451,50.88509074089951,86.35161090300005
98,190.092,0.10309023412184601,0.4432484554686325,50.792396592596624,86.35161090300005
99,190.194,0.10637965208373339,0.43961169913917547,50.70229382146485,86.35161090300005
100,190.299,0.10973383501353925,0.4358645334136278,50.60966148737113,86.35161090300005
101,190.404,0.11295874654840703,0.43202630433405825,50.51713095465495,86.35161090300005
102,190.509,0.11611929900057434,0.4281181763411285,50.42451722993441,86.35161090300005
103,190.614,0.11929966773043536,0.42421215051415995,50.33183403927772,86.35161090300005
104,190.722,0.12259055919347517,0.4202168566239005,50.23653363622899,86.35161090300005
105,190.824,0.1256685141462377,0.41644715770995616,50.14666787931086,86.35161090300005
106,190.929,0.12881110800511503,0.4125256018724648,50.054059286436946,86.35161090300005
107,191.034,0.13186969277798455,0.40855014945286217,49.96151145625845,86.35161090300005
108,191.139,0.13481703418214105,0.40451905357494355,49.86910595900957,86.35161090300005
109,191.244,0.1377577638073297,0.40047100106237654,49.7766376823241,86.35161090300005
110,191.349,0.14058922109656735,0.3963772745055404,49.684335399592555,86.35161090300005
111,191.454,0.14349981570198894,0.3923405715171152,49.59203904198248,86.35161090300005
112,191.559,0.14648148442421613,0.3883324402964501,49.49962142993492,86.35161090300005
113,191.664,0.149382742817723,0.38429886998285484,49.40737625986794,86.35161090300005
114,191.769,0.1523024275621398,0.38029039065897047,49.315192026010855,86.35161090300005
115,191.871,0.15509818538536776,0.3763917162180346,49.22576898532367,86.35161090300005
116,191.976,0.15790586453137476,0.3723454412369883,49.1338030016697,86.35161090300005
117,192.081,0.16061726631343534,0.36824094898926873,49.041873976086485,86.35161090300005
118,192.186,0.16332241818052723,0.3641052731956166,48.94980015125355,86.35161090300005
119,192.297,0.16627003312300623,0.3597713576175424,48.85235561940581,86.35161090300005
120,192.402,0.1690676349670257,0.35570588171204215,48.76032520295421,86.35161090300005
121,192.51,0.1720652686812596,0.35162970615311734,48.66576967788246,86.35161090300005
122,192.612,0.1748598442104169,0.34774402970612683,48.57641861938996,86.35161090300005
123,192.717,0.17777543832840687,0.3437791632796412,48.484475091638544,86.35161090300005
124,192.828,0.18075099943673412,0.3394943252989559,48.38718811677207,86.35161090300005
125,192.933,0.183575195376395,0.3354153469497925,48.29498989528245,86.35161090300005
126,193.035,0.186431403316629,0.3315503929865795,48.20551362706851,86.35161090300005
127,193.137,0.18941754626318935,0.327761630250529,48.115920403123425,86.35161090300005
128,193.242,0.1925106854164574,0.3238732867212944,48.02367540341814,86.35161090300005
129,193.344,0.19557319319665306,0.32011966332566666,47.933951863213096,86.35161090300005
130,193.449,0.19873838153623663,0.31627847057801983,47.84165123182131,86.35161090300005
131,193.554,0.2020260766496031,0.3125181329919971,47.74923771093335,86.35161090300005
132,193.659,0.20521822464332912,0.30865427696767284,47.65671539100657,86.35161090300005
133,193.764,0.20837653668345751,0.3047764802712151,47.564261429349806,86.35161090300005
134,193.869,0.21163002910068726,0.30099102526317856,47.47186982334753,86.35161090300005
135,193.977,0.21506573421836248,0.2971542209693842,47.37673502511044,86.35161090300005
136,194.082,0.2183695319460019,0.29338188340060484,47.28419584227833,86.35161090300005
137,194.19,0.22179576920908048,0.28954965194566945,47.189123258664175,86.35161090300005
138,194.295,0.22516816371847947,0.2858635589460558,47.09670253226323,86.35161090300005
139,194.397,0.22837736235314954,0.28221781741266694,47.00689867756238,86.35161090300005
140,194.505,0.23184820703907233,0.2784131851646786,46.91176583499454,86.35161090300005
141,194.61,0.23522478823529655,0.27468238550760415,46.81911545257792,86.35161090300005
142,194.718,0.2387106645613632,0.27083013064973127,46.723692336288295,86.35161090300005
143,194.82,0.24193353989029606,0.26712662180361774,46.63355262799996,86.35161090300005
144,194.925,0.24518225201985114,0.26329063526998187,46.540934849901376,86.35161090300005
145,195.03,0.2484115883744078,0.25941457964578707,46.44820047141263,86.35161090300005
146,195.135,0.25163908933519685,0.25550640244237044,46.355315363413496,86.35161090300005
147,195.243,0.25493540593025343,0.2514718554187993,46.259798711648436,86.35161090300005
148,195.348,0.2582422297860258,0.2476083693255522,46.16680582539606,86.35161090300005
149,195.453,0.26156155430149847,0.2437612952612404,46.07384045819499,86.35161090300005
150,195.555,0.26485006483983115,0.24007339472370443,45.983498036060354,86.35161090300005
151,195.66,0.2683152278091107,0.2363546321475197,45.890520922159936,86.35161090300005
152,195.765,0.27169195049096545,0.23257791433757843,45.79765144863649,86.35161090300005
153,195.87,0.27501712100285003,0.2287748323283943,45.704874112364735,86.35161090300005
154,195.975,0.2783500044336752,0.22498735976526757,45.61213932800677,86.35161090300005
155,196.08,0.28157103263628347,0.2210993463305782,45.519380062948585,86.35161090300005
156,196.185,0.28484671706389453,0.21724764988628334,45.42657392904731,86.35161090300005
157,196.287,0.2880953394590456,0.2135498273914193,45.33635315291755,86.35161090300005
158,196.392,0.2913218725005592,0.2096469384868102,45.24349808167776,86.35161090300005
159,196.5,0.29477137513495605,0.2057288449871209,45.14791561911153,86.35161090300005
160,196.605,0.2981170966385835,0.20192580077280703,45.055051739786826,86.35161090300005
161,196.71,0.3014455689763715,0.1980970350289308,44.96213661683285,86.35161090300005
162,196.812,0.3047056902882512,0.19438357974666542,44.8717921034845,86.35161090300005
163,196.917,0.3081267150839376,0.19061176621915651,44.77875621816718,86.35161090300005
164,197.022,0.31154976620818287,0.18686573177212884,44.68583360405555,86.35161090300005
165,197.124,0.314823552577943,0.18318941599197963,44.5956092288884,86.35161090300005
166,197.229,0.31822470968146577,0.17940123940230965,44.50258078264403,86.35161090300005
167,197.337,0.32166330162305323,0.1754313706032015,44.40679465900272,86.35161090300005
168,197.442,0.3249554899737389,0.1715043135389976,44.31355186808081,86.35161090300005
169,197.547,0.32817837712008746,0.16751048472512786,44.22026078696343,86.35161090300005
170,197.652,0.3313927461948661,0.16351406272231267,44.12699098327246,86.35161090300005
171,197.76,0.3347041951824071,0.1593807918717664,44.03092221116539,86.35161090300005
172,197.865,0.3380261817221609,0.15544614066179388,43.93751945475692,86.35161090300005
173,197.967,0.34118123708361564,0.15154495688921552,43.846689441709685,86.35161090300005
174,198.072,0.3445134621158926,0.147590390389126,43.7531470088178,86.35161090300005
175,198.177,0.3478349552011405,0.14362884701049533,43.659614588150504,86.35161090300005
176,198.282,0.35115308056708217,0.13965135493186348,43.56601769656944,86.35161090300005
177,198.384,0.3542842978311701,0.1357049929874588,43.47505740191542,86.35161090300005
178,198.489,0.3576340008823192,0.1317352181488682,43.38136845024734,86.35161090300005
179,198.594,0.36089700123827373,0.12772221327659877,43.287820411773666,86.35161090300005
180,198.699,0.3642321912181385,0.12374960940014183,43.194177419511725,86.35161090300005
181,198.801,0.3675994204434224,0.11997539261159995,43.10308738916954,86.35161090300005
182,198.909,0.37118968171562106,0.11601346392146301,43.00669555636607,86.35161090300005
183,199.014,0.37462344577293305,0.11208068029259985,42.912835836758916,86.35161090300005
184,199.116,0.37797930252802403,0.10826821545152536,42.82161087564004,86.35161090300005
185,199.218,0.3790571125540268,0.1132315800636576,42.730385914521165,86.35161090300005
186,199.32,0.38013492258002957,0.11819494467578986,42.63916095340229,86.35161090300005
187,199.422,0.3812127326060323,0.12315830928792211,42.54793599228341,86.35161090300005
188,199.527,0.38232224292691747,0.12826765521217592,42.454027944072806,86.35161090300005
189,199.626,0.38336835265803776,0.13308503851218662,42.36548607004566,86.35161090300005
190,199.734,0.3844069926921741,0.13836357098964527,42.26888252912659,86.35161090300005
191,199.857,0.3854521016757487,0.14440391290247634,42.158841642729094,86.35161090300005
192,199.956,0.38625638159164183,0.14929632258922862,42.07011787951212,86.35161090300005
193,200.061,0.3870949504624581,0.15449243181378466,41.975986375351674,86.35161090300005
194,200.163,0.38805637374816554,0.15954003265837094,41.88438185968059,86.35161090300005
195,200.268,0.3891800665879683,0.16473395155828371,41.789925600242576,86.35161090300005
196,200.373,0.3903529302499291,0.16991366347254394,41.695490094695195,86.35161090300005
197,200.478,0.39137980135044326,0.1751397003668341,41.60095777742646,86.35161090300005
198,200.583,0.39225783807946923,0.18041764899415322,41.50626854551032,86.35161090300005
199,200.691,0.39331969902701697,0.18584313861267138,41.408713463754694,86.35161090300005
200,200.796,0.3943825853810779,0.19113171642283225,41.31374363212692,86.35161090300005
201,200.898,0.3953370741171875,0.19627765936780373,41.22152875775419,86.35161090300005
202,201.0,0.3962366973786199,0.2014100675932596,41.12946146378361,86.35161090300005
203,201.102,0.3971594629053044,0.2065592967232141,41.03726231925706,86.35161090300005
204,201.207,0.3982608566996134,0.21180645791570524,40.94250253992596,86.35161090300005
205,201.312,0.3993098305440466,0.21704336465515328,40.847874457262726,86.35161090300005
206,201.417,0.40040470947599005,0.2222706302441539,40.75324785626732,86.35161090300005
207,201.522,0.40147168734665656,0.22747602957960983,40.658794520578994,86.35161090300005
208,201.627,0.402573319414695,0.23269705735131302,40.564198095971804,86.35161090300005
209,201.729,0.4036459979896304,0.2377943314659529,40.47214191553204,86.35161090300005
210,201.834,0.40459632984079646,0.24307246773540223,40.3773725377154,86.35161090300005
211,201.939,0.4056265061012591,0.24835577911651727,40.282476426807776,86.35161090300005
212,202.041,0.4064867761898322,0.2535202563522166,40.19024925768176,86.35161090300005
213,202.146,0.4072566940911996,0.258879965997224,40.09514888164117,86.35161090300005
214,202.248,0.4081120836855755,0.26408361500568733,40.002679475967156,86.35161090300005
215,202.353,0.4091559237295047,0.2694067019988912,39.9075167507214,86.35161090300005
216,202.455,0.4102827966222965,0.2745788215040665,39.8149195452084,86.35161090300005
217,202.557,0.41153795361636847,0.2797158378749223,39.72235639517628,86.35161090300005
218,202.659,0.41283934397732525,0.2848624119991211,39.629662495982046,86.35161090300005
219,202.761,0.41423614567611666,0.2900022663559722,39.53685526915399,86.35161090300005
220,202.866,0.4156036034798632,0.29531577075982074,39.44129461554063,86.35161090300005
221,202.968,0.41704898877837027,0.30046452547530905,39.348349690516685,86.35161090300005
222,203.076,0.41865696763145355,0.3058684423470743,39.2500928371338,86.35161090300005
223,203.181,0.4201342489865211,0.31112105269412604,39.15472576433933,86.35161090300005
224,203.286,0.4216752529026609,0.31637680520422673,39.0592267791476,86.35161090300005
225,203.4,0.42326130501968934,0.3220883937898164,38.9556621786628,86.35161090300005
226,203.517,0.42488870884500496,0.32795575070504346,38.84933916335325,86.35161090300005
227,203.682,0.42730975373004043,0.33623119366131754,38.69916953880414,86.35161090300005
228,203.787,0.428701343245267,0.3415129132901125,38.60376682230935,86.35161090300005
229,203.901,0.4303912101207631,0.3472133068954325,38.50008776988935,86.35161090300005
230,204.009,0.4320061685274282,0.35259565906788554,38.40195036507445,86.35161090300005
