,t,x,y,energy,sight
0,212.187,0.895245495328232,0.7204256950323743,49.90235577852941,89.27106798466943
1,212.298,0.9007991567140712,0.722062225377514,49.79924068801809,89.27106798466943
2,212.403,0.9061138752827311,0.7234751699401074,49.70155521949559,89.27106798466943
3,212.511,0.9115737187441308,0.7249701334787986,49.60105084577284,89.27106798466943
4,212.616,0.9168964956389811,0.7263252278278752,49.50340870298958,89.27106798466943
5,212.727,0.9225617978111099,0.7277195096497721,49.40000825590969,89.27106798466943
6,212.832,0.9279300408966782,0.728926464411149,49.30230409752672,89.27106798466943
7,212.937,0.9332797906546917,0.7303025881161511,49.20446135071021,89.27106798466943
8,213.042,0.9385846352430857,0.7317959821678915,49.1067009238837,89.27106798466943
9,213.147,0.9438884947577713,0.7333352416632726,49.00886587876351,89.27106798466943
10,213.252,0.9491911753206492,0.7349439966257447,48.91091151781977,89.27106798466943
11,213.357,0.9544978948153562,0.7365427201973286,48.81295099274461,89.27106798466943
12,213.465,0.95993125047543,0.7382342520717854,48.712256149429926,89.27106798466943
13,213.57,0.9652298281884368,0.7397658891588774,48.614467145158365,89.27106798466943
14,213.675,0.9705159982464592,0.7414180403936088,48.51653202871685,89.27106798466943
15,213.78,0.9757801597068303,0.7431092233529383,48.41865572346558,89.27106798466943
16,213.885,0.9810416198617593,0.744888960430725,48.32061835301535,89.27106798466943
17,213.993,0.9864703379555758,0.7467016981084902,48.219713597127274,89.27106798466943
18,214.098,0.9769482321268892,0.7483257156711545,48.12155478401525,89.27106798466943
19,214.203,0.9715827759800686,0.7498433802253708,48.02337883765319,89.27106798466943
20,214.311,0.9660951571796266,0.7515235515761225,47.92237361434671,89.27106798466943
21,214.413,0.960910930388172,0.7531129286568797,47.82696598408055,89.27106798466943
22,214.518,0.9555925322669779,0.7548073572245726,47.72875274199903,89.27106798466943
23,214.62,0.9503966933513933,0.7563870295121226,47.63329216906156,89.27106798466943
24,214.722,0.945269013904411,0.7581166222855636,47.53795409179223,89.27106798466943
25,214.824,0.9401971665076614,0.7599491825931045,47.44273607018484,89.27106798466943
26,214.926,0.935131680632295,0.7617746306928599,47.347571795198206,89.27106798466943
27,215.028,0.9300776564430132,0.7636449600137833,47.25237788602587,89.27106798466943
28,215.133,0.9248980710319467,0.7656320336256343,47.15438309419378,89.27106798466943
29,215.235,0.9197987467984838,0.767422134604629,47.059090590323486,89.27106798466943
30,215.337,0.9147678158897156,0.7693658834788818,46.96386870467449,89.27106798466943
31,215.439,0.9097957177087037,0.7713910320044878,46.868804670321985,89.27106798466943
32,215.544,0.9046287627876959,0.7733662404141842,46.77091252488653,89.27106798466943
33,215.649,0.8994424556635042,0.7752137560433762,46.67318724870431,89.27106798466943
34,215.754,0.8942440553461608,0.7770541053961917,46.57540438697749,89.27106798466943
35,215.856,0.8892095797091912,0.7789040688396442,46.480372958269726,89.27106798466943
36,215.961,0.883970429773143,0.7806611299075413,46.38251722782445,89.27106798466943
37,216.066,0.8786647976716738,0.7822663775581826,46.284551297089635,89.27106798466943
38,216.168,0.8735019712324987,0.783866212260605,46.18925483888407,89.27106798466943
39,216.276,0.8680463606923098,0.7855658362913326,46.08840860705247,89.27106798466943
40,216.381,0.8627339197650358,0.7872214178250113,45.99030645133787,89.27106798466943
41,216.486,0.857432150718013,0.7889387777144687,45.892149646713676,89.27106798466943
42,216.594,0.8519221577220746,0.7905439696457764,45.791144575022415,89.27106798466943
43,216.699,0.8465190634142848,0.7919910752274457,45.69285625556929,89.27106798466943
44,216.807,0.8409181056812246,0.7933999966810156,45.5916182262968,89.27106798466943
45,216.912,0.8355030306200373,0.7949366016053966,45.493103702103305,89.27106798466943
46,217.017,0.8301081046793518,0.7964646125684683,45.3947282445723,89.27106798466943
47,217.125,0.824549027601074,0.7979479374101777,45.29363021494064,89.27106798466943
48,217.23,0.8191262224249828,0.799411926897216,45.19519201361845,89.27106798466943
49,217.341,0.8134052064178116,0.8010017281121973,45.09112949079744,89.27106798466943
50,217.449,0.8078591303570862,0.8026729113601018,44.98978300860803,89.27106798466943
51,217.551,0.8026168961469734,0.8041479521152921,44.89422554645241,89.27106798466943
52,217.656,0.7971856506606364,0.8056025095659713,44.79575085486262,89.27106798466943
53,217.761,0.791735992035342,0.8070598083141307,44.69715778956198,89.27106798466943
54,217.863,0.7864539172579571,0.8084689876624577,44.60146582734539,89.27106798466943
55,217.968,0.7809770957040789,0.8097570847319326,44.50296803463571,89.27106798466943
56,218.079,0.7752027717993926,0.8112881961803193,44.39867467844469,89.27106798466943
57,218.181,0.7698833056085059,0.8126174156712006,44.3028790028018,89.27106798466943
58,218.331,0.7620519395348808,0.8143674980592536,44.16225094232935,89.27106798466943
59,218.466,0.7550463719652892,0.8160991258457363,44.03572198442545,89.27106798466943
60,218.589,0.7486439842824368,0.817523405913837,43.920542762073474,89.27106798466943
61,218.718,0.74190958851661,0.8190605185903632,43.799561066632414,89.27106798466943
62,218.853,0.7348877619308947,0.8207649445524611,43.672972458943,89.27106798466943
63,218.979,0.728357684761363,0.8224386292638991,43.55484138995383,89.27106798466943
64,219.144,0.7198398967526574,0.8248821644783442,43.399930556001436,89.27106798466943
65,219.273,0.7132201583245936,0.8268947766126754,43.278876307681706,89.27106798466943
66,219.396,0.7069209850046828,0.8287662874104367,43.16361763718972,89.27106798466943
67,219.519,0.7006494607375471,0.8307282624774757,43.048359343797216,89.27106798466943
68,219.645,0.6942382332041768,0.8326992682108113,42.930444531280116,89.27106798466943
69,219.765,0.6880905576746371,0.8344847471066821,42.81805675369683,89.27106798466943
70,219.888,0.6817899314741518,0.8363626052970824,42.70277758466716,89.27106798466943
71,220.008,0.6755893071944927,0.8381048893762617,42.59013991303544,89.27106798466943
72,220.131,0.6691913663018633,0.8397890571467265,42.47459590827536,89.27106798466943
73,220.251,0.6628890203125373,0.8412558983371292,42.36176596583075,89.27106798466943
74,220.374,0.656403544956898,0.8427059282423404,42.24603186069865,89.27106798466943
75,220.5,0.649765657536238,0.8442181941019637,42.12747313588821,89.27106798466943
76,220.62,0.6434595756432859,0.8457534484525079,42.01451851894361,89.27106798466943
77,220.74,0.6370913566594024,0.847115071815187,41.90142383891322,89.27106798466943
78,220.863,0.6305534239197504,0.8483120943866256,41.7856832576961,89.27106798466943
79,220.983,0.6241318865213269,0.8494080827810777,41.67257427977645,89.27106798466943
80,221.106,0.617804017887426,0.8472764632884322,41.55663757740881,89.27106798466943
81,221.226,0.6116304875128886,0.8451968345151195,41.443528599489156,89.27106798466943
82,221.358,0.6048396041008974,0.8429092428644755,41.31910872377754,89.27106798466943
83,221.478,0.59866607372636,0.8408296140911629,41.20599974585789,89.27106798466943
84,221.592,0.5928012198705495,0.8388539667565158,41.09854621683422,89.27106798466943
85,221.706,0.5869363660147389,0.8368783194218687,40.99109268781056,89.27106798466943
86,221.829,0.5806084973808381,0.8347466999292233,40.875155985442916,89.27106798466943
87,221.94,0.5748979817843909,0.8328230433139092,40.77053018086724,89.27106798466943
88,222.054,0.5690331279285804,0.8308473959792622,40.663076651843575,89.27106798466943
89,222.168,0.5631682740727698,0.8288717486446151,40.55562312281991,89.27106798466943
90,222.282,0.5573034202169593,0.826896101309968,40.448169593796244,89.27106798466943
91,222.396,0.5514385663611487,0.824920453975321,40.34071606477258,89.27106798466943
92,222.507,0.5457280507647015,0.8229967973600066,40.2360902601969,89.27106798466943
93,222.66,0.5378567995371664,0.8203452706740328,40.09187631334935,89.27106798466943
94,222.795,0.5309115778658118,0.8180056883040562,39.96462871318975,89.27106798466943
95,222.924,0.5242750327131841,0.8157700873727449,39.84303656192613,89.27106798466943
96,223.047,0.5179471640792832,0.8136384678800995,39.727099859558486,89.27106798466943
97,223.188,0.5106932658892017,0.811194904071457,49.5941968105029,89.27106798466943
98,223.326,0.5036295994789851,0.8087603847126367,49.46425027534951,89.27106798466943
99,223.458,0.49693660810731916,0.8063138077629828,49.34008443908644,89.27106798466943
100,223.653,0.4869466789666661,0.80292207559219,49.15651204119626,89.27106798466943
101,223.773,0.4807408122601874,0.8009692866836717,49.04345770653595,89.27106798466943
102,223.89,0.47866345174793323,0.8069626901366991,48.93322973024216,89.27106798466943
103,224.007,0.4765860912356791,0.8129560935897265,48.82300175394837,89.27106798466943
104,224.124,0.4745087307234249,0.8189494970427539,48.712773777654576,89.27106798466943
105,224.238,0.4726411925880919,0.8248389692463176,48.6053855113818,89.27106798466943
106,224.358,0.4708311089422573,0.8310657291454365,48.49246775760829,89.27106798466943
107,224.472,0.46926835345823453,0.8370457548780518,48.38506430296658,89.27106798466943
108,224.589,0.46764835146999306,0.843204980700237,48.274673124880124,89.27106798466943
109,224.709,0.4660195895733736,0.8495077266247696,48.16159356255293,89.27106798466943
110,224.829,0.46433645316729055,0.8558099485645758,48.04842881129409,89.27106798466943
111,224.952,0.46272028526294645,0.8623277222681314,47.932249512061226,89.27106798466943
112,225.066,0.46120146936006573,0.8683365420135392,47.82473758470943,89.27106798466943
113,225.18,0.4596391995220951,0.874310820151982,47.71737050484001,89.27106798466943
114,225.297,0.4579222956904724,0.8804005991763126,47.60724513974891,89.27106798466943
115,225.411,0.4561309239413188,0.8862912612661855,47.499994191078635,89.27106798466943
116,225.525,0.45446724223107465,0.8922416230071372,47.3926053757254,89.27106798466943
117,225.651,0.45260158120668964,0.8987940700396964,47.274015284533306,89.27106798466943
118,225.768,0.45106317346782987,0.9049031303182786,47.16406521490186,89.27106798466943
119,225.885,0.4495523085826699,0.9110301788666195,47.054046061416386,89.27106798466943
120,226.014,0.44805285790851357,0.9178181812314274,46.9327824332599,89.27106798466943
121,226.137,0.4466812681306627,0.9243214677361149,46.81704350520701,89.27106798466943
122,226.278,0.44530168407521276,0.9317937328268686,46.68449796628801,89.27106798466943
123,226.425,0.4437610071789491,0.9395265346598887,46.54654966522824,89.27106798466943
124,226.581,0.4421861703648397,0.9477649156791281,46.400027420100244,89.27106798466943
125,226.731,0.44081167502659424,0.9557464631721235,46.25892254001366,89.27106798466943
126,226.86,0.4396744815425935,0.9626472354388234,46.13738881399849,89.27106798466943
127,226.986,0.4385956486581568,0.9694258528570417,46.01847196514768,89.27106798466943
128,227.103,0.4376900650086594,0.9757206666681446,45.90813896607282,89.27106798466943
129,227.232,0.4367468072102401,0.9826815746217678,45.7864088769747,89.27106798466943
130,227.349,0.43599574027261684,0.9889968347209542,45.67607494753912,89.27106798466943
131,227.46,0.43511779636502246,0.9737674953178219,45.5712961924398,89.27106798466943
132,227.589,0.43389130462378117,0.9668575850848884,45.44960841319833,89.27106798466943
133,227.712,0.4325690066934322,0.9602819490316366,45.33347961399831,89.27106798466943
134,227.823,0.43118436974877306,0.9543605275316128,45.228499628576856,89.27106798466943
135,227.937,0.4297394221284193,0.9482871324310829,45.12069895374494,89.27106798466943
136,228.048,0.42820849174672454,0.9423845568659855,45.015611928476105,89.27106798466943
137,228.156,0.4268622761729516,0.9366120797141526,44.91340155172666,89.27106798466943
138,228.264,0.4256081714807185,0.930802546589741,44.8110889188288,89.27106798466943
139,228.369,0.4243203854828107,0.9251877460921347,44.71173140620717,89.27106798466943
140,228.477,0.42297878457472277,0.9194298831657262,44.60961882320317,89.27106798466943
141,228.585,0.4216859884774825,0.9136679097797599,44.507550226853766,89.27106798466943
142,228.69,0.4205816214661711,0.9080200538499289,44.40822965914102,89.27106798466943
143,228.795,0.4193528312361841,0.902402433740568,44.30893708390531,89.27106798466943
144,228.9,0.41827186114030335,0.8967414341031847,44.20956233494125,89.27106798466943
145,229.002,0.4173749773757359,0.8912378428373555,44.113170379861415,89.27106798466943
146,229.107,0.41645077104940204,0.8855569172636276,44.0138447136856,89.27106798466943
147,229.209,0.4156450935616637,0.8800079024713099,43.917254313425715,89.27106798466943
148,229.314,0.41463976707851524,0.8743380128997181,43.81791127345166,89.27106798466943
149,229.416,0.41364694375434646,0.8688547414765774,43.721543402372745,89.27106798466943
150,229.518,0.4128205562626408,0.8633200939149914,43.62502466246631,89.27106798466943
151,229.623,0.412089059936664,0.8575894702536818,43.525561336392606,89.27106798466943
152,229.725,0.4114756680677088,0.8520220387125234,43.429009843136555,89.27106798466943
153,229.83,0.41068038440642124,0.8462976937673314,43.329532413499805,89.27106798466943
154,229.932,0.40999561742095303,0.8407038379577431,43.23276016704725,89.27106798466943
155,230.034,0.40919045894652595,0.8351097105092762,43.13588449133303,89.27106798466943
156,230.136,0.4082235439517457,0.8295622844092545,43.03914136734052,89.27106798466943
157,230.238,0.40711715913578717,0.8240560176576421,42.94249258709505,89.27106798466943
158,230.343,0.40587867020247137,0.8183810770687915,42.842828366082465,89.27106798466943
159,230.445,0.4045250922055442,0.8129159035244905,42.7460901100925,89.27106798466943
160,230.547,0.4053276320324974,0.8073430922869511,42.64935185410254,89.27106798466943
161,230.655,0.4061773800845655,0.8014424686236741,42.54692311246611,89.27106798466943
162,230.757,0.4069799199115187,0.7958696573861346,42.45018485647615,89.27106798466943
163,230.862,0.40780606385102935,0.7901329399357263,42.35060135766295,89.27106798466943
164,230.964,0.4086086036779825,0.7845601286981869,42.25386310167299,89.27106798466943
165,231.066,0.40941114350493574,0.7789873174606474,42.15712484568303,89.27106798466943
166,231.168,0.4102136833318889,0.7734145062231079,42.06038658969307,89.27106798466943
167,231.273,0.41103982727139965,0.7676777887726998,41.96080309087987,89.27106798466943
168,231.375,0.41169176744122626,0.7620850439293522,41.86406283115682,89.27106798466943
169,231.48,0.4124634761159628,0.7563535481033736,41.76456050593765,89.27106798466943
170,231.582,0.4132963673232418,0.7507714798339084,41.66773545403297,89.27106798466943
171,231.681,0.4142570483084212,0.7453912506465582,41.573838471090546,89.27106798466943
172,231.783,0.4151178489593761,0.7398442292742099,41.47720829119609,89.27106798466943
173,231.885,0.4158763759434235,0.7343032644649111,41.380711050637395,89.27106798466943
174,231.99,0.416511741333366,0.7285755057159691,41.281338802432266,89.27106798466943
175,232.089,0.4170222307389482,0.7231602676980957,41.18760872011789,89.27106798466943
176,232.191,0.4175198762493476,0.7175550794715978,41.09089008285779,89.27106798466943
177,232.296,0.41794126540033527,0.7117577662322463,40.99119964525212,89.27106798466943
178,232.398,0.4182379271125797,0.7061372657289993,40.89447404370009,89.27106798466943
179,232.5,0.41870435417071433,0.7005415501694946,40.79783294137293,89.27106798466943
180,232.602,0.41929393391919445,0.6949828382744051,40.701353312273625,89.27106798466943
181,232.707,0.4198605947410492,0.6892656894351307,40.602094522909766,89.27106798466943
182,232.809,0.42043160106625244,0.6837303853061594,40.50577625818179,89.27106798466943
183,232.911,0.42109413532604406,0.6781854273895385,40.40933177964078,89.27106798466943
184,233.013,0.4216720500305312,0.6726151987979653,40.312786635153095,89.27106798466943
185,233.115,0.4221570029602037,0.6670322183153505,40.21621668927285,89.27106798466943
186,233.217,0.42251755598447016,0.6614290176423155,40.11957771301521,89.27106798466943
187,233.322,0.4230489662961455,0.6556608372790036,40.02001527744031,89.27106798466943
188,233.424,0.4234315917664325,0.650023008171855,39.92314584329997,89.27106798466943
189,233.529,0.4237525231901145,0.6442025287110356,39.82334844415893,89.27106798466943
190,233.631,0.42412445019664585,0.6385607821252481,39.726458564205196,89.27106798466943
191,233.733,0.4244854924680981,0.6329000691808125,39.629452062226754,89.27106798466943
192,233.835,0.42493737925282815,0.6272531217211099,39.53249174035864,89.27106798466943
193,233.934,0.42541975913852487,0.6217749265901465,39.43837672676011,89.27106798466943
194,234.039,0.4258463409386664,0.6159608733479149,39.3385770171623,89.27106798466943
195,234.138,0.42691085385198796,0.6105683831953255,39.244480148112935,89.27106798466943
196,234.243,0.4280398826994502,0.6048490754577306,39.144680438515124,89.27106798466943
197,234.345,0.42913665357984215,0.5992931765126384,39.04773214919154,89.27106798466943
198,234.447,0.4302334244602341,0.593737277567546,38.950783859867954,89.27106798466943
199,234.549,0.43133019534062605,0.5881813786224538,38.85383557054437,89.27106798466943
200,234.651,0.43242696622101795,0.5826254796773616,38.756887281220784,89.27106798466943
201,234.753,0.43336458715401366,0.5770561191471142,38.66003745150135,89.27106798466943
202,234.855,0.43434191871371713,0.5715150464421127,38.56332286471815,89.27106798466943
203,234.96,0.4353872279870994,0.5658174727566909,38.463760033742204,89.27106798466943
204,235.062,0.43633381982658426,0.5602561164620012,38.36695112983844,89.27106798466943
205,235.164,0.43741478724226035,0.5547274165787244,38.27019314733715,89.27106798466943
206,235.263,0.4385331523405349,0.549360153106843,38.17618597898576,89.27106798466943
207,235.365,0.4397466742686181,0.5438493647602645,38.07936760128653,89.27106798466943
208,235.464,0.4407774108654435,0.5384870375058078,37.98550154841724,89.27106798466943
209,235.566,0.44169163360351726,0.532911794000252,37.888639123342884,89.27106798466943
210,235.665,0.44270929645756985,0.5275383482178324,37.794718854707924,89.27106798466943
211,235.764,0.44366308321271386,0.5221592674061253,37.70083683737794,89.27106798466943
212,235.869,0.4445544853303277,0.5164356994631822,37.60127466359434,89.27106798466943
213,235.971,0.44555982588434373,0.5108895799497216,37.504496726556845,89.27106798466943
214,236.07,0.44637552664103525,0.5054570761494237,37.410420049043594,89.27106798466943
215,236.169,0.4470915496836588,0.49999772506396906,37.31626206578034,89.27106798466943
216,236.271,0.4476588468738176,0.49433876913420055,37.21915889181261,89.27106798466943
217,236.373,0.44821996775308887,0.48867995460479985,37.12206054000533,89.27106798466943
218,236.475,0.44864903493070407,0.4830106249336964,37.02496873950008,89.27106798466943
219,236.58,0.4490936377229969,0.47717730029238686,36.92503743405532,89.27106798466943
220,236.688,0.449581725259108,0.4712034006711264,36.82240190896887,89.27106798466943
221,236.79,0.4498804336587984,0.46555626810265727,36.72550540847755,89.27106798466943
222,236.892,0.4503294442187478,0.45990159226168004,36.628497244096145,89.27106798466943
223,236.994,0.4506064911241402,0.4542110196721404,36.531330116933106,89.27106798466943
224,237.099,0.4508539815143542,0.4483393126248595,36.431228077828564,89.27106798466943
225,237.201,0.45108940926980345,0.4426260741988747,36.33392799446287,89.27106798466943
226,237.306,0.4514249168247777,0.43674891798668714,36.23376320728876,89.27106798466943
227,237.408,0.45168004191203615,0.4310127774359233,36.13631128861465,89.27106798466943
228,237.51,0.4520290429832099,0.4252591886318348,36.03871631319849,89.27106798466943
229,237.615,0.45257158518393215,0.41935034820250217,35.93825091172777,89.27106798466943
230,237.72,0.4529753228037894,0.4134574969313835,35.837958503399726,89.27106798466943
231,237.822,0.45333968132108254,0.4077173374992653,35.740443222314994,89.27106798466943
232,237.924,0.4535549769131014,0.40196911381350703,35.642924469565884,89.27106798466943
