,t,x,y,energy,sight
0,321.168,0.7549790722653662,0.40569552895083405,49.902236314181174,97.76089585001802
1,321.264,0.7514078393969263,0.402792494192596,49.81021451673763,97.76089585001802
2,321.36,0.7477711007309986,0.3999943914522158,49.71828050540906,97.76089585001802
3,321.456,0.744099869102148,0.3972764146290708,49.62647923177499,97.76089585001802
4,321.555,0.7403755887704923,0.394409783141113,49.53187851113613,97.76089585001802
5,321.651,0.7368206337056786,0.391557476024398,49.44014174377534,97.76089585001802
6,321.753,0.7331112569575495,0.38840677683086106,49.34251639442907,97.76089585001802
7,321.849,0.7296441016551268,0.385398752547722,49.25057253152706,97.76089585001802
8,321.948,0.7260961252100315,0.38225245380220574,49.155701021568845,97.76089585001802
9,322.047,0.7224621018518251,0.37917164226173355,49.06068800143863,97.76089585001802
10,322.146,0.7188554074382212,0.3760523553271646,48.96564767637684,97.76089585001802
11,322.245,0.7153320650691108,0.3728764914918302,48.87076758412662,97.76089585001802
12,322.341,0.712019600438743,0.3697154604712961,48.77889689908788,97.76089585001802
13,322.437,0.7087128787207055,0.3665424447508911,48.68699973939788,97.76089585001802
14,322.533,0.7053917605227336,0.36338274731538156,48.59509484635658,97.76089585001802
15,322.632,0.7019688702145727,0.3601397839175052,48.50039545746984,97.76089585001802
16,322.728,0.6986152093613357,0.35703382368653186,48.408574091774106,97.76089585001802
17,322.824,0.6951786832773681,0.35399990910327217,48.3166686156696,97.76089585001802
18,322.923,0.69164300549575,0.3508692905321702,48.221922570932584,97.76089585001802
19,323.022,0.6880892041110549,0.347762634684948,48.1271907425397,97.76089585001802
20,323.118,0.6846574403306052,0.34473873355817775,48.035350515734315,97.76089585001802
21,323.217,0.6811544744702485,0.3415455727827636,47.94049269878348,97.76089585001802
22,323.316,0.6776662525545671,0.3383628132697843,47.84574945932323,97.76089585001802
23,323.415,0.6742018272104782,0.33515264615199614,47.75099960267421,97.76089585001802
24,323.514,0.6707605046187256,0.3319095392198031,47.65621383964499,97.76089585001802
25,323.613,0.6674050082089339,0.3285633078510236,47.5613630615905,97.76089585001802
26,323.715,0.6639086192230302,0.3251228183384377,47.46349190467596,97.76089585001802
27,323.817,0.6603932694372823,0.3217088108756495,47.36565245078281,97.76089585001802
28,323.919,0.6567975234258522,0.31841763773805176,47.26797793979045,97.76089585001802
29,324.021,0.6531195847717074,0.31520616862714407,47.1702512458256,97.76089585001802
30,324.123,0.6493921544396744,0.3120671840685528,47.072586090334795,97.76089585001802
31,324.222,0.6457527935640868,0.3090422515119811,46.977776840118594,97.76089585001802
32,324.324,0.6420569689994846,0.3058466517235373,46.880030353132945,97.76089585001802
33,324.423,0.6396013842303987,0.30178986048344075,46.78515876282334,97.76089585001802
34,324.522,0.6371457994613128,0.2977330692433442,46.69028717251374,97.76089585001802
35,324.621,0.6346902146922269,0.29367627800324764,46.59541558220414,97.76089585001802
36,324.72,0.632234629923141,0.2896194867631511,46.50054399189454,97.76089585001802
37,324.822,0.6297046334943859,0.2854397624551728,46.40279750490889,97.76089585001802
38,324.924,0.6271746370656307,0.28126003814719447,46.30505101792324,97.76089585001802
39,325.026,0.6246446406368755,0.2770803138392162,46.20730453093759,97.76089585001802
40,325.128,0.6221146442081203,0.2729005895312379,46.10955804395194,97.76089585001802
41,325.233,0.619510236119696,0.2685979321553779,46.008936660290246,97.76089585001802
42,325.335,0.6169802396909408,0.26441820784739967,45.9111901733046,97.76089585001802
43,325.437,0.6144502432621857,0.26023848353942136,45.81344368631895,97.76089585001802
44,325.539,0.6119202468334305,0.25605875923144306,45.7156971993333,97.76089585001802
45,325.638,0.6094646620643447,0.25200196799134644,45.6208256090237,97.76089585001802
46,325.74,0.6069346656355895,0.2478222436833682,45.52307912203805,97.76089585001802
47,325.842,0.6044046692068343,0.2436425193753899,45.4253326350524,97.76089585001802
48,325.941,0.6019490844377485,0.23958572813529333,45.3304610447428,97.76089585001802
49,326.043,0.5994190880089934,0.23540600382731505,45.23271455775715,97.76089585001802
50,326.142,0.5969635032399075,0.23134921258721847,45.13784296744755,97.76089585001802
51,326.238,0.594582330130491,0.22741535441500363,45.04584627381399,97.76089585001802
52,326.337,0.5921267453614051,0.22335856317490704,44.95097468350439,97.76089585001802
53,326.439,0.5895967489326499,0.21917883886692877,44.85322819651874,97.76089585001802
54,326.541,0.5870667525038947,0.21499911455895043,44.75548170953309,97.76089585001802
55,326.646,0.5844623444154704,0.2106964571830904,44.6548603258714,97.76089585001802
56,326.754,0.5817835246673766,0.20627086673934864,44.551364045533646,97.76089585001802
57,326.862,0.579104704919283,0.2018452762956069,44.447867765195895,97.76089585001802
58,326.976,0.5762770618518508,0.19717381971610173,54.33862169150605,97.76089585001802
59,327.087,0.5736614194176435,0.19254179348122077,54.23223372502806,97.76089585001802
60,327.204,0.5707651234665139,0.18775745296836355,54.120186859815604,97.76089585001802
61,327.324,0.5676989365311423,0.18291808964769338,54.00531282315923,97.76089585001802
62,327.438,0.5648112705392472,0.1783282551274831,53.896309545264984,97.76089585001802
63,327.549,0.5621184567536989,0.17381196883645003,53.790314354880536,97.76089585001802
64,327.66,0.56257915994201,0.16857404553436817,53.68431916449609,97.76089585001802
65,327.774,0.563052314567843,0.16319455673763544,53.57545923923639,97.76089585001802
66,327.885,0.5635130177561541,0.15795663343555358,53.46946404885194,97.76089585001802
67,327.996,0.5639737209444653,0.1527187101334717,53.36346885846749,97.76089585001802
68,328.116,0.5644717784453422,0.14705609034743727,53.24887946345728,97.76089585001802
69,328.236,0.5649698359462192,0.14139347056140283,53.134290068447065,97.76089585001802
70,328.347,0.5654305391345302,0.13615554725932097,53.02829487806262,97.76089585001802
71,328.458,0.5658912423228414,0.1309176239572391,52.92229968767817,97.76089585001802
72,328.569,0.5663519455111525,0.12567970065515727,52.81630449729372,97.76089585001802
73,328.677,0.5668001972619418,0.12058334284772625,52.71317404178453,97.76089585001802
74,328.782,0.567235997575209,0.1156285505349461,52.61290832115059,97.76089585001802
75,328.893,0.5676967007635201,0.11039062723286423,52.506913130766144,97.76089585001802
76,329.001,0.5681449525143093,0.10529426942543323,52.40378267525695,97.76089585001802
77,329.106,0.5685807528275766,0.10033947711265308,52.303516954623014,97.76089585001802
78,329.211,0.5690165531408439,0.09538468479987293,52.20325123398908,97.76089585001802
79,329.316,0.5694523534541112,0.0904298924870928,52.102985513355144,97.76089585001802
80,329.418,0.5698757023298564,0.0856166656689635,52.00558452759646,97.76089585001802
81,329.526,0.5703239540806456,0.0805203078615325,51.90245407208727,97.76089585001802
82,329.631,0.5707597543939129,0.07556551554875236,51.80218835145333,97.76089585001802
83,329.739,0.5712080061447021,0.07046915774132136,51.69905789594414,97.76089585001802
84,329.844,0.5716438064579694,0.06551436542854121,51.5987921753102,97.76089585001802
85,329.949,0.5720796067712366,0.060559573115761066,51.498526454676266,97.76089585001802
86,330.051,0.572502955646982,0.05574634629763179,51.401125468917584,97.76089585001802
87,330.153,0.5729263045227273,0.050933119479502506,51.3037244831589,97.76089585001802
88,330.255,0.5733496533984728,0.04611989266137323,61.20632349740022,97.76089585001802
89,330.36,0.5755750526345352,0.0505682054893971,61.106057776766285,97.76089585001802
90,330.459,0.5776732861999655,0.05476232901296246,61.011521525882856,97.76089585001802
91,330.561,0.5798351026007118,0.05908354718875708,60.91412054012417,97.76089585001802
92,330.666,0.5820605018367744,0.06353186001678095,60.81385481949024,97.76089585001802
93,330.768,0.5842223182375207,0.06785307819257556,60.716453833731556,97.76089585001802
94,330.87,0.5863841346382671,0.07217429636837018,60.619052847972874,97.76089585001802
95,330.969,0.5884823682036974,0.07636841989193555,60.524516597089445,97.76089585001802
96,331.068,0.5905806017691277,0.08056254341550091,60.429980346206015,97.76089585001802
97,331.167,0.592678835334558,0.08475666693906628,60.335444095322586,97.76089585001802
98,331.269,0.5948406517353043,0.0890778851148609,60.238043109563904,97.76089585001802
99,331.371,0.5970024681360507,0.09339910329065551,60.14064212380522,97.76089585001802
100,331.473,0.599164284536797,0.09772032146645013,60.04324113804654,97.76089585001802
101,331.572,0.6012625181022274,0.10191444499001548,59.94870488716311,97.76089585001802
102,331.674,0.6034243345029738,0.1062356631658101,69.85130390140442,97.76089585001802
103,331.773,0.6069480962774275,0.10933023247072507,69.756767650521,97.76089585001802
104,331.875,0.610578638711713,0.11251857660306168,69.65936666476232,97.76089585001802
105,331.974,0.6141024004861667,0.11561314590797664,69.5648304138789,97.76089585001802
106,332.07,0.6175193816007885,0.11861394038546993,69.47315889787072,97.76089585001802
107,332.169,0.6210431433752421,0.1217085096903849,69.3786226469873,97.76089585001802
108,332.265,0.6244601244898639,0.12470930416787818,69.28695113097912,97.76089585001802
109,332.364,0.6279838862643176,0.12780387347279315,69.1924148800957,97.76089585001802
110,332.463,0.6315076480387712,0.1308984427777081,69.09787862921227,97.76089585001802
111,332.562,0.6350314098132249,0.13399301208262307,69.00334237832885,97.76089585001802
112,332.661,0.6385551715876786,0.13708758138753802,68.90880612744543,97.76089585001802
113,332.763,0.6421857140219641,0.14027592551987464,68.81140514168675,97.76089585001802
114,332.862,0.6457094757964178,0.1433704948247896,68.71686889080333,97.76089585001802
115,332.961,0.6492332375708715,0.14646506412970456,68.6223326399199,97.76089585001802
116,333.066,0.652970560664989,0.14974718308946286,68.52206691928596,97.76089585001802
117,333.165,0.6564943224394427,0.15284175239437783,78.42753066840254,97.76089585001802
118,333.267,0.6527576335126755,0.1497784971751823,78.33012968264386,97.76089585001802
119,333.369,0.6490209445859082,0.14671524195598679,78.23272869688518,97.76089585001802
120,333.465,0.6455040608901272,0.14383217822027333,78.141057180877,97.76089585001802
121,333.564,0.6418772745788532,0.14085901874281886,78.04652092999358,97.76089585001802
122,333.663,0.6382504882675791,0.1378858592653644,77.95198467911015,97.76089585001802
123,333.762,0.634623701956305,0.13491269978790993,77.85744842822673,97.76089585001802
124,333.858,0.6311068182605241,0.1320296360521965,77.76577691221856,97.76089585001802
125,333.957,0.62748003194925,0.12905647657474204,77.67124066133513,97.76089585001802
126,334.056,0.623853245637976,0.12608331709728757,77.57670441045171,97.76089585001802
127,334.155,0.6202264593267018,0.1231101576198331,77.48216815956829,97.76089585001802
128,334.254,0.6165996730154277,0.12013699814237863,77.38763190868487,97.76089585001802
129,334.359,0.6127530814731672,0.11698364718144208,77.28736618805092,97.76089585001802
130,334.461,0.6090163925463999,0.11392039196224657,77.18996520229224,97.76089585001802
131,334.563,0.6052797036196327,0.11085713674305105,87.09256421653356,97.76089585001802
132,334.665,0.6015366806575952,0.10782527168937521,86.995258713132,97.76089585001802
133,334.767,0.5978491793106868,0.10475054513999627,86.89805356523746,97.76089585001802
134,334.872,0.5941398350000325,0.10149705414257185,86.79804328438632,97.76089585001802
135,334.971,0.5905621857249952,0.09855089025749537,86.7038596953725,97.76089585001802
136,335.07,0.5869147440713565,0.09569367431887804,86.60968435327622,97.76089585001802
137,335.169,0.5832824683097727,0.09278336035808907,86.51537406031808,97.76089585001802
138,335.271,0.5794668450590441,0.08983948507181459,86.41805331041799,97.76089585001802
139,335.367,0.5759579384778253,0.08696022422146099,86.32643670362867,97.76089585001802
140,335.541,0.5695371538923006,0.08175833256321442,86.16014738591042,97.76089585001802
141,335.643,0.5658314784450489,0.07866589041498966,86.06278029272268,97.76089585001802
142,335.745,0.5620339552587593,0.07567353351209763,85.96536010321896,97.76089585001802
143,335.847,0.5582878184819391,0.0726579224345194,85.86810444864327,97.76089585001802
144,335.946,0.5546761617167392,0.06973482670300565,85.77384562776618,97.76089585001802
145,336.045,0.5511056993760357,0.06673124520983477,85.67946230726517,97.76089585001802
146,336.147,0.5475290402176252,0.06355384019002587,85.58236613597185,97.76089585001802
147,336.246,0.5440111538518109,0.060492120768633494,85.48799657169057,97.76089585001802
148,336.348,0.5403873672948861,0.05733722249771678,85.39076903587826,97.76089585001802
149,336.45,0.5367187357911956,0.0542688927377725,85.29368282487029,97.76089585001802
150,336.552,0.5331156120499635,0.051084238212987534,85.1964291171883,97.76089585001802
151,336.654,0.5295631269103097,0.04782229298984751,85.09908509964359,97.76089585001802
152,336.753,0.526166138296612,0.04457966124827328,85.00450729801304,97.76089585001802
153,336.852,0.5228044731283537,0.04127230182986456,84.90980354610143,97.76089585001802
154,336.951,0.5195003667462109,0.03787260710287151,84.81494033029702,97.76089585001802
155,337.05,0.5161435126460332,0.03455696349033209,84.72022128548892,97.76089585001802
156,337.152,0.5125828811142872,0.03125264770645396,84.62265502422702,97.76089585001802
157,337.248,0.5091813374151668,0.028219012880525047,84.53091820182671,97.76089585001802
158,337.347,0.5057540488711997,0.024983385018419603,84.4362306206681,97.76089585001802
159,337.449,0.5021583429321794,0.021744502706496617,84.33878127137241,97.76089585001802
160,337.557,0.49843377533043104,0.01825992228032975,84.23575047460906,97.76089585001802
161,337.659,0.4948436478891007,0.015085251961774526,84.13860140568023,97.76089585001802
162,337.758,0.49129204299688595,0.019161259086145195,84.04433953910882,97.76089585001802
163,337.86,0.4875893600731384,0.022171648082628222,83.94732111618875,97.76089585001802
164,337.956,0.48411193388817375,0.02503418310197461,83.85592812820555,97.76089585001802
165,338.055,0.48060581768747423,0.02804425797284583,83.76183170276812,97.76089585001802
166,338.154,0.47719691061558045,0.03115655187970362,83.66776741321577,97.76089585001802
167,338.25,0.47397699285660033,0.034242965230567045,83.5766548487075,97.76089585001802
168,338.349,0.47067367007457167,0.03743373187756432,83.4827393496404,97.76089585001802
169,338.52,0.46514955202574876,0.04310789271218153,83.32060975440541,97.76089585001802
170,338.622,0.46176417469388653,0.04639228820696527,83.22394493974238,97.76089585001802
171,338.724,0.4583847980212634,0.04970643102834811,83.1271746806885,97.76089585001802
172,338.823,0.45500785566676616,0.052818674781714904,83.03326136419128,97.76089585001802
173,338.919,0.45179040850002394,0.055900126287259114,82.9421821863843,97.76089585001802
174,339.015,0.4486221594433313,0.059047461353011234,82.85103398522637,97.76089585001802
175,339.108,0.4456307072572739,0.062198426077226074,82.76261545247317,97.76089585001802
176,339.207,0.4423611996944062,0.0654711144345716,82.66848665867903,97.76089585001802
177,339.303,0.4391529012637731,0.06862589575002473,82.57712265511066,97.76089585001802
178,339.396,0.43601983711939163,0.071624540641658,82.48875528532562,97.76089585001802
179,339.492,0.43270336310959656,0.07465511392160676,82.39743572931842,97.76089585001802
180,339.585,0.4294836628017715,0.07757105575089372,82.30902322044278,97.76089585001802
181,339.678,0.42615905993385583,0.08039853259883063,82.22047958202569,97.76089585001802
182,339.774,0.4227863887739577,0.08340484352001168,82.12899706013478,97.76089585001802
183,339.867,0.4196127481702322,0.08641203518060032,82.0404039101193,97.76089585001802
184,339.963,0.4162487640765443,0.08944659471139953,81.94884208267926,97.76089585001802
185,340.059,0.41289327221174627,0.09247579664008237,81.85734357682212,97.76089585001802
186,340.152,0.4096981017452615,0.09547154530753106,81.7687003880577,97.76089585001802
187,340.245,0.40640673414458,0.09838918709931914,81.67993900959137,97.76089585001802
188,340.338,0.40314222977635766,0.10132153556196219,81.59124324303549,97.76089585001802
189,340.431,0.399935438573371,0.10434860681516016,81.50240852513032,97.76089585001802
190,340.527,0.3965877505761678,0.1074123603798158,81.41079824119574,97.76089585001802
191,340.626,0.39316382103202985,0.11058981155522359,81.3163807946301,97.76089585001802
192,340.731,0.38960620594364664,0.11401440418523079,81.21634456847818,97.76089585001802
193,340.839,0.38599332983929624,0.11757534833784604,81.11349086833711,97.76089585001802
194,340.944,0.3825271418243456,0.12105774770893418,81.0136124387951,97.76089585001802
195,341.049,0.37911533315229196,0.12456780388229957,80.91385187200339,97.76089585001802
196,341.157,0.37571558472185485,0.12827617018492005,80.81126606649369,97.76089585001802
197,341.262,0.3753433923724286,0.13315317195819815,80.71152986669259,97.76089585001802
198,341.388,0.374896761553117,0.13900557408613187,80.59184642693127,97.76089585001802
199,341.514,0.3744501307338055,0.1448579762140656,80.47216298716995,97.76089585001802
200,341.631,0.3740354021158734,0.15029234961857546,80.36102836453445,97.76089585001802
201,341.745,0.3736313075650677,0.1555873801152774,80.25274334760755,97.76089585001802
202,341.862,0.37321657894713556,0.16102175351978726,80.14160872497204,97.76089585001802
203,341.973,0.37282311846345634,0.16617744110868124,80.03617331375375,97.76089585001802
204,342.087,0.3724190239126507,0.17147247160538318,79.92788829682685,97.76089585001802
205,342.195,0.3720361974960979,0.1764888162864692,79.82530249131715,97.76089585001802
206,342.3,0.37166400514667164,0.1813658180597473,79.72556629151605,97.76089585001802
207,342.405,0.3712918127972453,0.1862428198330254,79.62583009171495,97.76089585001802
208,342.51,0.370919620447819,0.1911198216063035,79.52609389191385,97.76089585001802
209,342.615,0.37054742809839275,0.1959968233795816,79.42635769211275,97.76089585001802
210,342.717,0.3701858698160929,0.20073448224505172,79.32947109802025,97.76089585001802
211,342.816,0.36983494560091956,0.2053327982027139,79.23543410963636,97.76089585001802
212,342.918,0.36947338731861973,0.21007045706818403,79.13854751554386,97.76089585001802
213,343.017,0.3691224631034464,0.21466877302584622,79.04451052715997,97.76089585001802
214,343.116,0.368771538888273,0.21926708898350838,78.95047353877608,97.76089585001802
215,343.218,0.3684099806059732,0.22400474784897853,78.85358694468358,97.76089585001802
216,343.314,0.3680696904579263,0.2284637208988328,78.7623995620083,97.76089585001802
217,343.413,0.36771876624275296,0.233062036856495,78.6683625736244,97.76089585001802
218,343.512,0.3673678420275796,0.23766035281415715,78.57432558524052,97.76089585001802
219,343.614,0.36700628374527977,0.2423980116796273,78.47743899114802,97.76089585001802
220,343.713,0.3666553595301064,0.24699632763728951,88.38340200276413,97.76089585001802
221,343.809,0.3631502374540949,0.2442192145181601,88.29221462008884,97.76089585001802
222,343.908,0.359535580313208,0.24135531661405785,88.19817763170495,97.76089585001802
223,344.001,0.3561399933020718,0.23866498827990118,88.10983985473827,97.76089585001802
224,344.097,0.3526348712260603,0.23588787516077175,88.01865247206298,97.76089585001802
225,344.193,0.3491297491500488,0.23311076204164233,87.9274650893877,97.76089585001802
226,344.289,0.34562462707403724,0.2303336489225129,87.83627770671241,97.76089585001802
227,344.382,0.34222904006290106,0.22764332058835626,87.74793992974573,97.76089585001802
228,344.475,0.3388334530517649,0.2249529922541996,87.65960215277904,97.76089585001802
229,344.568,0.3354378660406287,0.22226266392004296,87.57126437581236,97.76089585001802
230,344.661,0.3320422790294925,0.2195723355858863,87.48292659884568,97.76089585001802
