,t,x,y,energy,sight
0,323.415,0.7848300538170901,0.8403336330169255,49.906529272398764,85.06149714581241
1,323.514,0.7855057455282,0.8461063203904432,49.81319125948346,85.06149714581241
2,323.613,0.7860699600819585,0.8518795245846181,49.71992613386231,85.06149714581241
3,323.715,0.7881784028291478,0.8574717404725662,49.62383479231325,85.06149714581241
4,323.817,0.790286845576337,0.8630639563605144,49.527743450764184,85.06149714581241
5,323.919,0.7923952883235262,0.8686561722484625,49.43165210921512,85.06149714581241
6,324.021,0.7945037310707155,0.8742483881364105,49.33556076766606,85.06149714581241
7,324.123,0.7966121738179048,0.8798406040243586,49.239469426117,85.06149714581241
8,324.222,0.7986586035431179,0.8852683429744259,49.146204300495846,85.06149714581241
9,324.324,0.8007670462903071,0.8908605588623739,49.050112958946784,85.06149714581241
10,324.423,0.8028134760155202,0.8962882978124412,48.95684783332563,85.06149714581241
11,324.522,0.8048599057407333,0.9017160367625084,48.86358270770448,85.06149714581241
12,324.621,0.8069063354659465,0.9071437757125758,48.77031758208333,85.06149714581241
13,324.72,0.8089527651911596,0.912571514662643,48.67705245646218,85.06149714581241
14,324.822,0.8110612079383488,0.9181637305505911,48.580961114913116,85.06149714581241
15,324.924,0.813169650685538,0.9237559464385392,48.48486977336405,85.06149714581241
16,325.026,0.8152780934327273,0.9293481623264872,48.38877843181499,85.06149714581241
17,325.128,0.8173865361799164,0.9349403782144353,58.29268709026593,85.06149714581241
18,325.233,0.8195228599328418,0.9407221981125558,58.19369526017676,85.06149714581241
19,325.335,0.8216401300929128,0.9463132926357612,58.09759066281463,85.06149714581241
20,325.437,0.8238537492466985,0.9518509992303533,58.00158085010873,85.06149714581241
21,325.539,0.8260119198415431,0.9574129914953247,57.905556469919425,85.06149714581241
22,325.638,0.8282236648216623,0.9627791534490209,57.81226967865419,85.06149714581241
23,325.74,0.8305576002536389,0.9682640699383261,57.71627851144244,85.06149714581241
24,325.842,0.8329598203606734,0.973715321366854,57.62031138060263,85.06149714581241
25,325.941,0.8353441855616823,0.9789926795115482,57.52710837845129,85.06149714581241
26,326.043,0.8379384399199225,0.984366790556764,57.431074469794005,85.06149714581241
27,326.142,0.8406154004099651,0.9895253228642191,57.3377386073623,85.06149714581241
28,326.238,0.8431137185649138,0.9741829201768686,57.24728771292619,85.06149714581241
29,326.337,0.8457284106707093,0.9689744112061709,57.15384814635848,85.06149714581241
30,326.439,0.8485816789927376,0.9637098322889278,57.05768270757037,85.06149714581241
31,326.541,0.8514141818788037,0.9584159364468053,56.96141508176398,85.06149714581241
32,326.646,0.854456335021416,0.9530246932876155,56.86225391502329,85.06149714581241
33,326.754,0.8575102607424695,0.9474369108739129,56.76025526592462,85.06149714581241
34,326.862,0.8604689475647289,0.9418117882952244,56.65833405018969,85.06149714581241
35,326.976,0.8634157023589302,0.9357944550108396,56.55080651777637,85.06149714581241
36,327.087,0.866308993551969,0.9299719899549975,56.446250065726,85.06149714581241
37,327.204,0.8695408754878603,0.9239430572749452,56.33612259394834,85.06149714581241
38,327.324,0.8726916330629756,0.9177026663507094,56.22333297771024,85.06149714581241
39,327.438,0.8756826843836846,0.9117671986273367,56.11614854221692,85.06149714581241
40,327.549,0.8787513737782657,0.9060888440977489,56.01189423704881,85.06149714581241
41,327.66,0.8816581063640271,0.9003006635277332,55.90749563290815,85.06149714581241
42,327.774,0.8873445092665986,0.903752514865016,55.8002754448718,85.06149714581241
43,327.885,0.8928812699875233,0.9071135280092122,65.69587684073115,85.06149714581241
44,327.996,0.8985026366284841,0.9103607082489248,65.591383578613,85.06149714581241
45,328.116,0.9044689092627103,0.914038706478134,65.47847769441914,85.06149714581241
46,328.236,0.9103730940981254,0.9178648378342033,65.36540110591065,85.06149714581241
47,328.347,0.9158737813139959,0.9213146921205432,65.26090039533983,85.06149714581241
48,328.458,0.921270611620904,0.9248887466493244,65.15652772989965,85.06149714581241
49,328.569,0.9265920113489411,0.9286229270390759,65.05197661094462,85.06149714581241
50,328.677,0.9316911360233879,0.9323206748368769,64.9504202518869,85.06149714581241
51,328.782,0.936696682485359,0.9358111031921295,64.85182221109888,85.06149714581241
52,328.893,0.9420467789926839,0.9393767845420025,64.74772832831546,85.06149714581241
53,329.001,0.9472461989448353,0.9428495688215607,64.64646782403416,85.06149714581241
54,329.106,0.9521888286186527,0.9463592027718961,64.54812835897935,85.06149714581241
55,329.211,0.9570369159069966,0.9500210031578291,64.4497015673304,85.06149714581241
56,329.316,0.9617790708757351,0.9537753097400813,64.35144891323323,85.06149714581241
57,329.418,0.9664971441843733,0.9573077120385711,64.25588612185369,85.06149714581241
58,329.526,0.9713739856248249,0.9612020202015442,64.15469988614618,85.06149714581241
59,329.631,0.97599476550234,0.9651128709398809,64.05641364631991,85.06149714581241
60,329.739,0.9807176553761563,0.9691831722198543,63.955266489150276,85.06149714581241
61,329.844,0.9853431297540742,0.973069066815289,63.85706024180399,85.06149714581241
62,329.949,0.9787645120327069,0.9769005842947882,63.758993650684005,85.06149714581241
63,330.051,0.9742079917005496,0.9805745321392271,63.66369145099933,85.06149714581241
64,330.153,0.9696375405924244,0.9842515770546043,63.56830738206207,85.06149714581241
65,330.255,0.965138631650191,0.9880354672489592,63.472842486598964,85.06149714581241
66,330.36,0.9604188954179989,0.976915006284087,63.37452139999258,85.06149714581241
67,330.459,0.9559384452112283,0.9733886270978565,63.28188970663591,85.06149714581241
68,330.561,0.9514204758241,0.9696342756924867,63.186452476780836,85.06149714581241
69,330.666,0.946719281990544,0.9658594227009999,63.08832282162363,85.06149714581241
70,330.768,0.9421043324621399,0.9622899296056143,62.99314149254984,85.06149714581241
71,330.87,0.937432857295828,0.9588291630112795,62.898091731411,85.06149714581241
72,330.969,0.9329929438923731,0.9553450433318378,62.80583113937774,85.06149714581241
73,331.068,0.9286560817612453,0.9517596600415619,62.71367762758225,85.06149714581241
74,331.167,0.9243630996241189,0.9481462182763156,62.62162473695615,85.06149714581241
75,331.269,0.9198727765982356,0.9444774698685782,62.52667245625682,85.06149714581241
76,331.371,0.9153228993404972,0.9408495307820056,62.431587628180644,85.06149714581241
77,331.473,0.9107042902362738,0.9373096562123029,62.336503384681954,85.06149714581241
78,331.572,0.9062901599280171,0.9337540051573129,62.2440870450932,85.06149714581241
79,331.674,0.9018221843375771,0.9300105462089203,62.14894014869146,85.06149714581241
80,331.773,0.8974868037454712,0.9263726806501766,62.056578958217585,85.06149714581241
81,331.875,0.8930298031298027,0.922589609977097,61.961322322942515,85.06149714581241
82,331.974,0.8887012027509569,0.9189073752193453,61.86881101623664,85.06149714581241
83,332.07,0.8844362606538198,0.9154506866678048,61.779236633328274,85.06149714581241
84,332.169,0.880103910960013,0.9117668470590367,61.68670039359939,85.06149714581241
85,332.265,0.8760203172966925,0.9080683509159726,61.597000223416345,85.06149714581241
86,332.364,0.8718526299980844,0.9042007021571224,61.50447051378008,85.06149714581241
87,332.463,0.8676578110435139,0.9003607751382502,61.411933363922046,85.06149714581241
88,332.562,0.8635496498620789,0.8964571125278715,61.31952359122719,85.06149714581241
89,332.661,0.8593420226202989,0.8926858319029763,61.22722063317376,85.06149714581241
90,332.763,0.8550337852148238,0.8887991284890872,61.13224371585757,85.06149714581241
91,332.862,0.8509593674257923,0.8849018617603541,61.04001849504926,85.06149714581241
92,332.961,0.8467862165898572,0.8810908594046989,60.94770860442453,85.06149714581241
93,333.066,0.8423015434013484,0.8770956114408888,60.84972595023422,85.06149714581241
94,333.165,0.8381851091624133,0.8732328644025422,60.75745746385731,85.06149714581241
95,333.267,0.8338162436071258,0.8693598392868582,60.66224966917675,85.06149714581241
96,333.369,0.829341729574964,0.8655729332924464,60.566891657695265,85.06149714581241
97,333.465,0.8250351706450472,0.862092222157927,60.47701351680331,85.06149714581241
98,333.564,0.8205251368061666,0.8585874883296256,60.38431802204978,85.06149714581241
99,333.663,0.8159314608265952,0.8552221018035823,60.29173243431694,85.06149714581241
100,333.762,0.8113541867382128,0.8518353674692882,60.199150374599235,85.06149714581241
101,333.858,0.8068575998188455,0.8485961236142374,60.10924323806407,85.06149714581241
102,333.957,0.8022299308946875,0.8452123424956829,60.016412563333695,85.06149714581241
103,334.056,0.7975240121323742,0.8419309897358496,59.92355529886029,85.06149714581241
104,334.155,0.7928022133765316,0.8386475531741805,59.830607009764684,85.06149714581241
105,334.254,0.7880167069913989,0.8354497470133037,59.737630523690505,85.06149714581241
106,334.359,0.7829036572450986,0.8321231274898452,59.63904764609563,85.06149714581241
107,334.461,0.7780192137480079,0.8288100406024765,59.54343263278295,85.06149714581241
108,334.563,0.7731900152044998,0.8253783310662521,59.44767504710791,85.06149714581241
109,334.665,0.7683932446625915,0.821917626904885,59.351978172601086,85.06149714581241
110,334.767,0.763493492839219,0.8185884138163464,59.25622413108574,85.06149714581241
111,334.872,0.7584722369634922,0.8151507960225457,59.157735504589695,85.06149714581241
112,334.971,0.7536793961916478,0.8119625068160735,59.06475375091869,85.06149714581241
113,335.07,0.7488530401822221,0.8088079469794593,58.97171175950409,85.06149714581241
114,335.169,0.7439465936600235,0.8057506031132972,58.87857243484351,85.06149714581241
115,335.271,0.7490071936036797,0.8026094129791426,58.78261070640534,85.06149714581241
116,335.367,0.7537701111977092,0.7996529987352323,58.69229378552236,85.06149714581241
117,335.541,0.7624028993368875,0.794294497918145,58.52859436642195,85.06149714581241
118,335.643,0.7674634992805438,0.7911533077839904,58.43263263798378,85.06149714581241
119,335.745,0.7725240992242001,0.7880121176498357,58.33667090954561,85.06149714581241
120,335.847,0.7775846991678563,0.7848709275156811,58.24070918110744,85.06149714581241
121,335.946,0.7824964579366992,0.7818221253266486,58.147569856446864,85.06149714581241
122,336.045,0.7874082167055421,0.7787733231376162,58.05443053178629,85.06149714581241
123,336.147,0.7924688166491983,0.7756321330034616,57.95846880334812,85.06149714581241
124,336.246,0.7973805754180412,0.7725833308144291,57.86532947868754,85.06149714581241
125,336.348,0.8024411753616973,0.7694421406802745,57.76936775024937,85.06149714581241
126,336.45,0.8075017753053537,0.7663009505461198,67.6734060218112,85.06149714581241
127,336.552,0.8124658948599363,0.7630326890564214,67.57752643699108,85.06149714581241
128,336.654,0.8174992830138146,0.7598388902787473,67.48153323873858,85.06149714581241
129,336.753,0.8224486970949858,0.7568655560212383,67.38843997042387,85.06149714581241
130,336.852,0.8274068480046255,0.7538631090264294,67.29520259044581,85.06149714581241
131,336.951,0.832413417418325,0.7509927219635285,67.2021273704481,85.06149714581241
132,337.05,0.8374983994476237,0.7482779082186826,67.10909520603089,85.06149714581241
133,337.152,0.8427748342798204,0.7455201385320528,67.01314996892341,85.06149714581241
134,337.248,0.8477863538281685,0.7429815831223164,66.92275673921792,85.06149714581241
135,337.347,0.8529762786902053,0.7403857287950557,66.82947751866793,85.06149714581241
136,337.449,0.8586800555405464,0.7421780642226605,66.73337165507097,85.06149714581241
137,337.557,0.8647193486762017,0.7440758311460067,66.63161250538008,85.06149714581241
138,337.659,0.8704231255265429,0.7458681665736115,66.53550664178312,85.06149714581241
139,337.758,0.8759591442342268,0.7476077862533457,66.44222742123313,85.06149714581241
140,337.86,0.8816629210845679,0.7494001216809505,66.34612155763617,85.06149714581241
141,337.956,0.8870311816495949,0.7510870256128138,66.25566898013315,85.06149714581241
142,338.055,0.8925672003572789,0.7528266452925478,66.16238975958316,85.06149714581241
143,338.154,0.8981032190649628,0.7545662649722819,66.06911053903318,85.06149714581241
144,338.25,0.9034714796299899,0.7562531689041452,65.97865796153016,85.06149714581241
145,338.349,0.9090074983376738,0.7579927885838792,65.88537874098017,85.06149714581241
146,338.52,0.9185697124691281,0.7609975862125108,65.72426008730292,85.06149714581241
147,338.622,0.9242734893194692,0.7627899216401155,65.62815422370596,85.06149714581241
148,338.724,0.9299772661698104,0.7645822570677202,65.532048360109,85.06149714581241
149,338.823,0.9355132848774943,0.7663218767474543,65.43876913955901,85.06149714581241
150,338.919,0.9408815454425212,0.7680087806793175,65.348316562056,85.06149714581241
151,339.015,0.9462498060075483,0.7696956846111809,65.25786398455298,85.06149714581241
152,339.108,0.9514503084299181,0.7713298727951735,65.17023805009694,85.06149714581241
153,339.207,0.9569863271376022,0.7730694924749075,75.07695882954695,85.06149714581241
154,339.303,0.9623822132391748,0.7746697170780907,74.98649917879501,85.06149714581241
155,339.396,0.9675488922359692,0.7763340208532219,74.8990210871762,85.06149714581241
156,339.492,0.9729249585095656,0.7779079944466745,74.80873059847353,85.06149714581241
157,339.585,0.9781249435461132,0.7794910082945066,74.72120461266259,85.06149714581241
158,339.678,0.9833143751791683,0.7811737177812489,74.63355173512689,85.06149714581241
159,339.774,0.9886357942000634,0.7829474468760431,74.54321321703871,85.06149714581241
160,339.867,0.9749777370617918,0.7847844394708849,74.45556260315584,85.06149714581241
161,339.963,0.9696445851639929,0.7866323581889385,74.36500018406038,85.06149714581241
162,340.059,0.9642529141736877,0.7883191163076344,74.27440492154206,85.06149714581241
163,340.152,0.959018068504923,0.789934715729544,74.18660450521524,85.06149714581241
164,340.245,0.953839851855556,0.79170659598282,74.09883931830448,85.06149714581241
165,340.338,0.9486683059909933,0.7934787333559419,74.01111398894083,85.06149714581241
166,340.431,0.9435713291313081,0.7953965608075894,73.92352244831608,85.06149714581241
167,340.527,0.9383262112875739,0.7973977491491995,73.83315404876583,85.06149714581241
168,340.626,0.9328836032207773,0.7993094919122189,73.74009442231338,85.06149714581241
169,340.731,0.9271486370683124,0.8013935366005249,73.64149926915445,85.06149714581241
170,340.839,0.9212503752518242,0.8035675172232803,73.54002362999717,85.06149714581241
171,340.944,0.915602747182317,0.8058452826848652,73.44150677933284,85.06149714581241
172,341.049,0.910015680286091,0.8082404196021807,73.34305931240843,85.06149714581241
173,341.157,0.9042911546755837,0.8106996530698005,73.24194040330089,85.06149714581241
174,341.262,0.8986694732560757,0.8129428013956834,73.14366016036278,85.06149714581241
175,341.388,0.8919203538021702,0.8155800523112703,73.02583357732254,85.06149714581241
176,341.514,0.8851602392006359,0.8181781844244073,72.90803184897109,85.06149714581241
177,341.631,0.8789209958276446,0.8206729318664989,72.79867896575215,85.06149714581241
178,341.745,0.8727694161581354,0.8229883751013796,72.69196557279422,85.06149714581241
179,341.862,0.866456976218748,0.8253510129187855,72.58248096149075,85.06149714581241
180,341.973,0.8605007263164774,0.8276910380270822,72.47857913856572,85.06149714581241
181,342.087,0.8543925793707343,0.8300647767830863,72.37199208453792,85.06149714581241
182,342.195,0.8486334826348715,0.83238868290635,72.27100193358959,85.06149714581241
183,342.3,0.8429796940637045,0.8345171647872549,72.17279538415653,85.06149714581241
184,342.405,0.8372936553430854,0.8365354863304507,72.07463712154647,85.06149714581241
185,342.51,0.8316081342705586,0.8384960764808623,71.9766040119022,85.06149714581241
186,342.615,0.8258886485461423,0.8403343090321075,71.87861213315328,85.06149714581241
187,342.717,0.8208026106768814,0.8374723308437069,71.78342002236862,85.06149714581241
188,342.816,0.8158661621567166,0.834694528484377,71.69102767954821,85.06149714581241
189,342.918,0.8107801242874558,0.8318325502959765,71.59583556876355,85.06149714581241
190,343.017,0.805843675767291,0.8290547479366465,71.50344322594314,85.06149714581241
191,343.116,0.8009072272471262,0.8262769455773167,71.41105088312274,85.06149714581241
192,343.218,0.7958211893778654,0.8234149673889162,71.31585877233807,85.06149714581241
193,343.314,0.7910343302067965,0.8207213408586569,71.22626619748192,85.06149714581241
194,343.413,0.7860978816866316,0.8179435384993271,71.13387385466152,85.06149714581241
195,343.512,0.7811614331664668,0.8151657361399973,71.04148151184111,85.06149714581241
196,343.614,0.776075395297206,0.8123037579515968,70.94628940105645,85.06149714581241
197,343.713,0.7711389467770412,0.809525955592267,80.85389705823604,85.06149714581241
198,343.809,0.766393936229739,0.8067603048112888,80.76430780155908,85.06149714581241
199,343.908,0.761515269793602,0.8039222814079897,80.6720450311469,85.06149714581241
200,344.001,0.7569488135109006,0.8012208144668443,80.58535042645929,85.06149714581241
201,344.097,0.752273113097221,0.798376836260231,80.49588582272123,85.06149714581241
202,344.193,0.7476177353565508,0.795468487278225,80.40631574832038,85.06149714581241
203,344.289,0.7429966881801323,0.792513735922274,80.31677273577083,85.06149714581241
204,344.382,0.7384822538088647,0.7897210063989999,80.23006063937429,85.06149714581241
205,344.475,0.7339855041824663,0.7869237402047988,80.14342941668943,85.06149714581241
206,344.568,0.7295317040417725,0.7840667825452637,80.0568265529438,85.06149714581241
207,344.661,0.7250530385642477,0.781235604022634,79.97017807663057,85.06149714581241
208,344.757,0.7204744063559875,0.7782551082089422,79.88077384369952,85.06149714581241
209,344.85,0.7159734840314952,0.7754759337548461,79.79418091780884,85.06149714581241
210,344.943,0.7115324343354604,0.7725950415994393,79.70756359177089,85.06149714581241
211,345.039,0.7112107741370266,0.7671401303081826,79.6181521584414,85.06149714581241
212,345.132,0.7108991658197936,0.7618556849947778,79.53153483240345,85.06149714581241
213,345.225,0.7105875575025608,0.7565712396813731,79.4449175063655,85.06149714581241
214,345.318,0.7102759491853279,0.7512867943679683,79.35830018032755,85.06149714581241
215,345.411,0.709964340868095,0.7460023490545635,79.2716828542896,85.06149714581241
216,345.504,0.7096527325508621,0.7407179037411586,79.18506552825164,85.06149714581241
217,345.597,0.7093411242336292,0.7354334584277539,79.09844820221369,85.06149714581241
218,345.69,0.7090295159163963,0.7301490131143491,79.01183087617574,85.06149714581241
219,345.786,0.7087078557179625,0.7246941018230925,78.92241944284625,85.06149714581241
220,345.879,0.7083962474007295,0.7194096565096877,78.8358021168083,85.06149714581241
221,345.972,0.7080846390834967,0.7141252111962829,78.74918479077034,85.06149714581241
222,346.065,0.7077730307662639,0.7088407658828781,78.66256746473239,85.06149714581241
223,346.158,0.707461422449031,0.7035563205694733,78.57595013869444,85.06149714581241
224,346.254,0.7071397622505972,0.6981014092782167,78.48653870536495,85.06149714581241
225,346.344,0.7068382058145654,0.6929874299426636,78.40271548661855,85.06149714581241
226,346.437,0.7065265974973325,0.6877029846292588,78.3160981605806,85.06149714581241
227,346.527,0.7062250410613007,0.6825890052937058,78.23227494183419,85.06149714581241
228,346.623,0.7059033808628667,0.6771340940024492,78.1428635085047,85.06149714581241
229,346.719,0.7055817206644328,0.6716791827111925,78.05345207517522,85.06149714581241
230,346.818,0.7052500085847979,0.6660538054420841,77.96124653455418,85.06149714581241
231,346.917,0.7049182965051629,0.6604284281729759,87.86904099393314,85.06149714581241
232,347.016,0.7044344450149894,0.6547907960992279,87.77668691891083,85.06149714581241
233,347.115,0.7040644061618727,0.6491325779065341,87.68425637705872,85.06149714581241
