,t,x,y,energy,sight
0,370.068,0.5135023597949187,0.1915730569876572,49.897412986602156,79.34770612683343
1,370.182,0.5132781139746588,0.19778675286871572,49.79731518777885,79.34770612683343
2,370.293,0.5131324479232092,0.20385444523797727,49.699753465357745,79.34770612683343
3,370.407,0.5128671935204302,0.2101089194342825,49.599384591519936,79.34770612683343
4,370.518,0.5125292997467543,0.21618891338495194,49.50169528333593,79.34770612683343
5,370.632,0.512349887690424,0.22245912056533404,49.401245276591446,79.34770612683343
6,370.743,0.5122516908473436,0.2285474785761421,49.30355741502179,79.34770612683343
7,370.857,0.5122645259994097,0.23479243603519726,49.20328534621197,79.34770612683343
8,370.968,0.517954524497844,0.23693672378820502,49.10565201605504,79.34770612683343
9,371.076,0.5234907392530772,0.23902305781815847,49.010657424551,79.34770612683343
10,371.187,0.5291807377515114,0.2411673455711662,48.91302409439407,79.34770612683343
11,371.298,0.5348707362499455,0.24331163332417396,48.81539076423714,79.34770612683343
12,371.412,0.5407145184915806,0.24551387480023595,48.715118695427314,79.34770612683343
13,371.526,0.5465583007332157,0.24771611627629792,48.61484662661749,79.34770612683343
14,371.64,0.5524020829748507,0.2499183577523599,48.51457455780767,79.34770612683343
15,371.751,0.5580920814732849,0.25206264550536767,48.41694122765074,79.34770612683343
16,371.862,0.563782079971719,0.2542069332583754,48.31930789749381,79.34770612683343
17,371.976,0.5696258622133541,0.25640917473443736,48.219035828683985,79.34770612683343
18,372.087,0.5753158607117883,0.25855346248744515,48.121402498527054,79.34770612683343
19,372.195,0.5808520754670216,0.2606397965173986,48.026407907023014,79.34770612683343
20,372.306,0.5865420739654558,0.26278408427040634,47.92877457686608,79.34770612683343
21,372.414,0.592078288720689,0.2648704183003598,47.83377998536204,79.34770612683343
22,372.522,0.5976145034759223,0.26695675233031324,47.738785393858,79.34770612683343
23,372.633,0.6033045019743565,0.26910104008332103,47.64115206370107,79.34770612683343
24,372.741,0.6088407167295897,0.2711873741132745,57.54615747219703,79.34770612683343
25,372.849,0.6144079648521646,0.2732593907762212,57.45100902029652,79.34770612683343
26,372.957,0.6199217662964654,0.27548638169061873,57.355820731437724,79.34770612683343
27,373.071,0.6257876559025606,0.2777975183217708,57.255166003299415,79.34770612683343
28,373.182,0.6315336695041789,0.27995562887738684,57.15716598588801,79.34770612683343
29,373.293,0.6372299658504481,0.2821643827899828,57.05934767611762,79.34770612683343
30,373.404,0.642879215928178,0.2845118601253737,56.96147791848238,79.34770612683343
31,373.518,0.648734216875407,0.2868664927614801,56.86078498079493,79.34770612683343
32,373.629,0.6543909957681083,0.2892940896681868,56.76267133773928,79.34770612683343
33,373.737,0.6598984710127817,0.29163110636464534,56.667251050730535,79.34770612683343
34,373.845,0.6653541320601224,0.29401953821186116,56.57200503813142,79.34770612683343
35,373.953,0.6707925501229591,0.29650057390338586,56.47661792800252,79.34770612683343
36,374.064,0.676441033238443,0.29893213646836964,56.37854304088543,79.34770612683343
37,374.172,0.6819370232937181,0.301285248689082,56.283149981194114,79.34770612683343
38,374.28,0.6874005877351064,0.30367646807137916,56.18785047783463,79.34770612683343
39,374.394,0.6931730948933718,0.3062340580093001,56.08713839039896,79.34770612683343
40,374.508,0.6989210313212935,0.3088681208491525,55.98636858806772,79.34770612683343
41,374.619,0.7044454522762836,0.31156999478740144,55.88829292476611,79.34770612683343
42,374.733,0.7101348885831973,0.3143620837808761,55.7874278904286,79.34770612683343
43,374.844,0.7156555546544653,0.3170866335664716,55.689309802311534,79.34770612683343
44,374.955,0.7212038098679748,0.3197356934975605,55.59124386821869,79.34770612683343
45,375.066,0.726777333704735,0.3222794042500831,55.49331663657097,79.34770612683343
46,375.174,0.7322056286160935,0.3246795536397978,55.398200736588905,79.34770612683343
47,375.282,0.7375939016168069,0.32717195756955125,55.30307488486576,79.34770612683343
48,375.393,0.7431962719562295,0.3296463765628714,55.20516088551131,79.34770612683343
49,375.501,0.7486510749348498,0.3320429229969234,55.109899043662445,79.34770612683343
50,375.609,0.7540195086407533,0.3345712332435476,55.01479105364259,79.34770612683343
51,375.72,0.7595972573285553,0.3370372490099973,54.91704292507336,79.34770612683343
52,375.828,0.7649829787747779,0.3394606850198721,54.82211515109234,79.34770612683343
53,375.942,0.7707263383816219,0.3418724817781245,54.721944009023176,79.34770612683343
54,376.053,0.7762705807841594,0.34429874599581484,54.624494605571826,79.34770612683343
55,376.164,0.7817643268362534,0.3467961593877403,54.527154843769246,79.34770612683343
56,376.278,0.7871364135952195,0.349887140319995,54.427184277593625,79.34770612683343
57,376.389,0.7923671296500021,0.35289677964876937,54.329844515791045,79.34770612683343
58,376.5,0.7975978457047848,0.3559064189775437,54.232504753988465,79.34770612683343
59,376.608,0.802687191055384,0.35883471670283773,54.137795796558926,79.34770612683343
60,376.719,0.8079179071101666,0.361844356031612,54.040456034756346,79.34770612683343
61,376.83,0.8131486231649493,0.3648539953603863,53.943116272953766,79.34770612683343
62,376.938,0.8182379685155488,0.36778229308568033,53.84840731552423,79.34770612683343
63,377.052,0.8236100552745146,0.3708732740179351,53.748436749348606,79.34770612683343
64,377.16,0.828699400625114,0.373801571743229,53.65372779191907,79.34770612683343
65,377.271,0.8339301166798967,0.3768112110720033,63.55638803011649,79.34770612683343
66,377.385,0.839360103946753,0.37976482466463674,63.456523388602434,79.34770612683343
67,377.499,0.8447774996066147,0.3827829493267735,63.35653022857758,79.34770612683343
68,377.613,0.85012976609191,0.3859196929287517,63.25652227992104,79.34770612683343
69,377.724,0.8553851252331921,0.3888894750423363,63.159171868665176,79.34770612683343
70,377.835,0.8605940454736254,0.3919180659671666,63.061892129395744,79.34770612683343
71,377.946,0.8658802100804162,0.39485835776499445,62.96446204625547,79.34770612683343
72,378.057,0.8710852732317965,0.39792409852593463,62.86708352615418,79.34770612683343
73,378.165,0.8760800473444167,0.40102209749066453,62.77233698186604,79.34770612683343
74,378.276,0.8812880461738818,0.40406198595264387,62.675025942100845,79.34770612683343
75,378.384,0.886329540898565,0.40703678972932034,62.58043173718415,79.34770612683343
76,378.543,0.8938981346815735,0.4112344390706505,62.44093307399066,79.34770612683343
77,378.645,0.8987171216627801,0.41403938966818127,62.35129103304161,79.34770612683343
78,378.747,0.9036324987852069,0.41670815153159396,62.26153849282487,79.34770612683343
79,378.849,0.9085981670811776,0.4193368020478155,62.171623582654505,79.34770612683343
80,378.951,0.9135176547283722,0.42204251024976536,62.081734567429386,79.34770612683343
81,379.053,0.9185217237893522,0.4246146558589398,61.99176901754535,79.34770612683343
82,379.155,0.9236098695335595,0.42706630300015896,61.901665435838446,79.34770612683343
83,379.257,0.9286182583530114,0.4296316324828087,61.81169520337232,79.34770612683343
84,379.359,0.933610914456535,0.43220981063812725,61.72177690319285,79.34770612683343
85,379.461,0.9385430124858603,0.4348532095497329,61.63200724516091,79.34770612683343
86,379.563,0.9435254710507126,0.43735088681433887,61.54238075934835,79.34770612683343
87,379.665,0.948465927573924,0.43988152495794564,61.452898703728835,79.34770612683343
88,379.767,0.953348647410829,0.44254227778199484,61.363354258840374,79.34770612683343
89,379.872,0.9584101174956942,0.4452314821697446,61.27112914875154,79.34770612683343
90,379.983,0.9636933697409594,0.44817552648758746,61.173703668858316,79.34770612683343
91,380.097,0.9691405852255152,0.451146591703496,61.07368877368093,79.34770612683343
92,380.208,0.9745024607901543,0.4539142057287699,60.97635374335752,79.34770612683343
93,380.328,0.980264555699183,0.4569147521012148,60.871297730188296,79.34770612683343
94,380.445,0.9858789432726518,0.45979714460712345,60.76901570698454,79.34770612683343
95,380.565,0.9770417486433169,0.46259686326643273,60.66415014328331,79.34770612683343
96,380.682,0.9713222150167115,0.46521810126188257,60.56199283340377,79.34770612683343
97,380.793,0.9659727640504074,0.4678235164165053,60.46519428651037,79.34770612683343
98,380.907,0.9605766533772527,0.4706637259481387,60.36586325146044,79.34770612683343
99,381.018,0.9553064990769903,0.4734085134158419,60.269116599302045,79.34770612683343
100,381.129,0.9500869324046791,0.4762766378695818,60.172283003943235,79.34770612683343
101,381.24,0.9449162648549176,0.479194931520145,60.075566599041636,79.34770612683343
102,381.357,0.939434673638868,0.48227145905392754,59.97344546275434,79.34770612683343
103,381.489,0.9333442164340194,0.4859101711251815,59.85821379538856,79.34770612683343
104,381.639,0.926428739748325,0.4901007913734555,59.72711500864067,79.34770612683343
105,381.78,0.919913142128693,0.49398786067264056,59.60397146987057,79.34770612683343
106,381.909,0.9138514070612894,0.4973667123459518,59.49131751666284,79.34770612683343
107,382.053,0.9071945404646927,0.5013079684329005,59.3656326253308,79.34770612683343
108,382.194,0.9005654391296136,0.5050069158842756,59.2424617309043,79.34770612683343
109,382.323,0.8943893202959969,0.5082159956313297,59.129678227007936,79.34770612683343
110,382.449,0.8883307899386592,0.5113112104220148,59.019484444127464,79.34770612683343
111,382.59,0.8816582527294357,0.5149779082940082,58.89617034133629,79.34770612683343
112,382.734,0.8748081474736139,0.5186185110637388,68.77034890468859,79.34770612683343
113,382.869,0.8683164040657362,0.521970906586812,68.65217596954481,79.34770612683343
114,383.013,0.8614438494422572,0.5256040925419049,68.52624981840387,79.34770612683343
115,383.142,0.8552405719785987,0.5287046764126284,68.41362676961819,79.34770612683343
116,383.262,0.849459537708347,0.5315671535626609,68.30886283387382,79.34770612683343
117,383.385,0.8434866292605857,0.5343787886509954,68.20154756954925,79.34770612683343
118,383.517,0.8370638755336532,0.5373220209081075,68.08650551724763,79.34770612683343
119,383.652,0.8305136780638744,0.5404105484528461,67.96874487523979,79.34770612683343
120,383.781,0.8243219320313437,0.5434252528371093,67.8564311888883,79.34770612683343
121,383.919,0.8176571698535238,0.5466191255915297,67.73613193133544,79.34770612683343
122,384.051,0.8113263049198565,0.5496956978684634,67.62125742884476,79.34770612683343
123,384.183,0.8049689574816291,0.5527268727480166,67.50635622991481,79.34770612683343
124,384.312,0.7987053431027176,0.555577042342338,67.39407500298796,79.34770612683343
125,384.441,0.7924528823772008,0.5584043819528677,67.28191914289003,79.34770612683343
126,384.564,0.7863809595362696,0.5609256194684695,67.1747768172807,79.34770612683343
127,384.69,0.7800713163870159,0.5633300999102538,67.0649102290659,79.34770612683343
128,384.813,0.7739679365270271,0.5657774764882931,66.95776011063452,79.34770612683343
129,384.93,0.7681168844189363,0.568038329682667,66.85572387357905,79.34770612683343
130,385.047,0.7622612908519335,0.5703625826821166,66.7535125977704,79.34770612683343
131,385.164,0.7564659760991166,0.5728660322886762,66.65121871212496,79.34770612683343
132,385.29,0.750246933062407,0.5755492373850052,66.54121823096033,79.34770612683343
133,385.41,0.7442714627885916,0.5780388689543452,66.43631050241521,79.34770612683343
134,385.524,0.7386502841797733,0.5805887088725166,66.33650246541212,79.34770612683343
135,385.641,0.7329218514107272,0.5833579649842203,66.23389009025135,79.34770612683343
136,385.755,0.7274161922696661,0.5862349469807476,66.13382884609462,79.34770612683343
137,385.866,0.7221061767269853,0.5891565148605108,66.03632320112949,79.34770612683343
138,385.98,0.7166081268031499,0.5920949072398867,65.93612137181213,79.34770612683343
139,386.088,0.7113342198806512,0.5947787998372657,65.84111871654196,79.34770612683343
140,386.202,0.7057316706832987,0.5976005691220562,65.74066705052901,79.34770612683343
141,386.31,0.7003773690800329,0.600184894130223,65.64548641110154,79.34770612683343
142,386.421,0.6948296141632904,0.6027362244117762,65.54768880369603,79.34770612683343
143,386.532,0.6893483068861828,0.6054388672637512,65.44985864698873,79.34770612683343
144,386.643,0.6838285584873234,0.6080705123938407,65.35200536880029,79.34770612683343
145,386.757,0.6780844269695702,0.6106742971499178,65.25133809156515,79.34770612683343
146,386.868,0.6724319686421812,0.6130479860575884,65.15338472572549,79.34770612683343
147,386.976,0.6668925552966816,0.6152475229493599,65.05810959195283,79.34770612683343
148,387.084,0.6614033565965363,0.617530270887025,64.96293166580574,79.34770612683343
149,387.201,0.6553976144515465,0.619873624113623,64.85978142503818,79.34770612683343
150,387.312,0.649445353001315,0.6212798726009099,64.76192094020742,79.34770612683343
151,387.423,0.6434930915510835,0.6226861210881969,64.66406045537666,79.34770612683343
152,387.528,0.6378625739630266,0.6240163561437384,64.57148972648268,79.34770612683343
153,387.636,0.6320711844438824,0.6253845979151527,64.47627411962031,79.34770612683343
154,387.741,0.6264406668558256,0.6267148329706943,64.38370339072634,79.34770612683343
155,387.849,0.6206492773366813,0.6280830747421086,64.28848778386397,79.34770612683343
156,387.954,0.6150187597486244,0.6294133097976502,64.19591705497,79.34770612683343
157,388.059,0.6093882421605675,0.630743544853192,64.10334632607602,79.34770612683343
158,388.164,0.6037577245725106,0.6320737799087335,64.01077559718205,79.34770612683343
159,388.269,0.5981272069844538,0.6334040149642752,63.91820486828808,79.34770612683343
160,388.374,0.5924966893963969,0.6347342500198169,63.82563413939411,79.34770612683343
161,388.479,0.58686617180834,0.6360644850753585,63.733063410500144,79.34770612683343
162,388.584,0.5812356542202831,0.6373947201309001,63.640492681606176,79.34770612683343
163,388.689,0.5756051366322262,0.6387249551864419,73.5479219527122,79.34770612683343
164,388.794,0.5736601205221931,0.6441737317412403,73.45535122381823,79.34770612683343
165,388.899,0.5717151044121598,0.6496225082960387,73.36278049492425,79.34770612683343
166,389.007,0.5697145164132685,0.6552269641809743,73.26756488806188,79.34770612683343
167,389.112,0.5677695003032353,0.6606757407357726,73.17499415916791,79.34770612683343
168,389.214,0.5658800560820602,0.6659688379604339,73.08506830824234,79.34770612683343
169,389.316,0.5639906118608851,0.6712619351850952,72.99514245731677,79.34770612683343
170,389.421,0.5620455957508519,0.6767107117398936,72.9025717284228,79.34770612683343
171,389.523,0.5601561515296767,0.6820038089645549,72.81264587749723,79.34770612683343
172,389.625,0.5582667073085016,0.6872969061892162,72.72272002657166,79.34770612683343
173,389.736,0.5562105474207523,0.6930570414042888,72.6248595417409,79.34770612683343
174,389.847,0.554154387533003,0.6988171766193615,72.52699905691014,79.34770612683343
175,389.952,0.5522093714229698,0.7042659531741599,72.43442832801617,79.34770612683343
176,390.057,0.5502643553129365,0.7097147297289583,72.34185759912219,79.34770612683343
177,390.162,0.5483193392029033,0.7151635062837567,72.24928687022822,79.34770612683343
178,390.27,0.5463187512040121,0.7207679621686922,72.15407126336585,79.34770612683343
179,390.372,0.544429306982837,0.7260610593933535,72.06414541244028,79.34770612683343
180,390.477,0.5424842908728038,0.7315098359481519,71.97157468354631,79.34770612683343
181,390.582,0.5405392747627707,0.7369586125029504,81.87900395465233,79.34770612683343
182,390.687,0.5385263810237824,0.7423694172713013,81.78651279473023,79.34770612683343
183,390.789,0.5366794543966605,0.7476650083482264,81.6966624392202,79.34770612683343
184,390.894,0.5349225265987343,0.7531795789189769,81.60407786855717,79.34770612683343
185,390.996,0.5333458267958934,0.7585974720975979,81.5140084401825,79.34770612683343
186,391.098,0.5319107594498591,0.7640585851164483,81.42391428018728,79.34770612683343
187,391.2,0.5305556035917872,0.7695145468486972,81.33397870106346,79.34770612683343
188,391.308,0.5291637685020587,0.7752795009883682,81.23889257481682,79.34770612683343
189,391.41,0.5279243009892041,0.7807335819406008,81.14914000221205,79.34770612683343
190,391.515,0.526678426948534,0.7863790638137037,81.05659615618026,79.34770612683343
191,391.62,0.5255969472529531,0.7920326791411527,80.96421356768032,79.34770612683343
192,391.725,0.5244316853838459,0.7976609344293621,80.87188542924923,79.34770612683343
193,391.83,0.5234148185461639,0.803328855950593,80.7794881738345,79.34770612683343
194,391.932,0.5223254942022317,0.808838794700724,80.68958557514313,79.34770612683343
195,392.037,0.5212813406088307,0.8145285972399922,80.59701935098175,79.34770612683343
196,392.139,0.5201364097083292,0.8200177551578826,80.5071762432475,79.34770612683343
197,392.241,0.5188624124823159,0.8255034426891404,80.41717704142157,79.34770612683343
198,392.343,0.5174811831888453,0.8309772047468801,80.32709042428586,79.34770612683343
199,392.448,0.5160348779730011,0.8366248804631798,80.23423550216535,79.34770612683343
200,392.553,0.5146430448450489,0.842278171956545,80.14143063723195,79.34770612683343
201,392.655,0.5131191404310672,0.8477287283829833,80.05125288266589,79.34770612683343
202,392.763,0.5115416379244875,0.8534841055270773,79.95592955618031,79.34770612683343
203,392.871,0.5098079797431078,0.8591838060849062,79.86067101929373,79.34770612683343
204,392.976,0.5082511898468456,0.8647809712854896,79.76794596418284,79.34770612683343
205,393.084,0.5065729283500565,0.8704952662079855,79.67269947662413,79.34770612683343
206,393.192,0.5047490809133668,0.8761696927837059,79.57742301474892,79.34770612683343
207,393.303,0.5028517244659902,0.8820095928324433,79.4794072137576,79.34770612683343
208,393.408,0.5009738833758172,0.8875118740933072,79.38665488532487,79.34770612683343
209,393.516,0.4990901264368709,0.8931809015545171,79.29129214935408,79.34770612683343
210,393.621,0.49712914313015777,0.8986424998578896,79.19860971908751,79.34770612683343
211,393.729,0.4949829905803589,0.9042204897383594,79.10322902663664,79.34770612683343
212,393.834,0.49284420070520546,0.9095937771524591,79.01067246759858,79.34770612683343
213,393.939,0.49058640362656314,0.9149091131103404,78.91816917360792,79.34770612683343
214,394.047,0.4882709179228895,0.9203745474654191,78.82305039250706,79.34770612683343
215,394.152,0.48593350364109006,0.9256798362398818,78.73040377745602,79.34770612683343
216,394.26,0.4833890677702364,0.9310710217037569,78.63512006933033,79.34770612683343
217,394.365,0.48097362058922927,0.9363146341938056,78.54262818462651,79.34770612683343
218,394.473,0.4786543886974705,0.9417637483356989,78.4475961730036,79.34770612683343
219,394.581,0.4764913557640435,0.9472537640602876,78.35270095215962,79.34770612683343
220,394.686,0.47437450083012955,0.9525640286279401,78.26057105532148,79.34770612683343
221,394.788,0.4723736414959145,0.9577344125101217,78.17113280068867,79.34770612683343
222,394.89,0.47048400455803707,0.9629331613026993,78.08177463063944,79.34770612683343
223,394.995,0.46856395641834875,0.9683188497603714,77.98963788262496,79.34770612683343
224,395.097,0.46676201965894676,0.9735546466444367,77.9002433848492,79.34770612683343
225,395.199,0.4649772411281517,0.9787715980200415,77.81099860981443,79.34770612683343
226,395.298,0.4632852213277047,0.983852455954576,77.7243559146904,79.34770612683343
227,395.403,0.46163704180901266,0.9892714046928281,77.63256257850853,79.34770612683343
228,395.505,0.46003950116304687,0.9741948612487834,77.543278380827,79.34770612683343
229,395.61,0.45853884598424,0.968699165849632,77.45127484660476,79.34770612683343
230,395.715,0.45708022244580154,0.9631986056287172,77.3593111528885,79.34770612683343
231,395.82,0.4555234522314053,0.9577082147093767,77.26724403689978,79.34770612683343
232,395.925,0.4541062116311605,0.9521595533684424,77.17504913638184,79.34770612683343
