,t,x,y,energy,sight
0,415.419,0.8777629443075897,0.2515744470271265,49.903519707458166,82.75207222210749
1,415.527,0.8800219998917544,0.25688426766307376,49.80700764927038,82.75207222210749
2,415.632,0.8820873856424798,0.26209954155143317,49.71318130588464,82.75207222210749
3,415.737,0.8840643234848302,0.26735406824676,49.61932449265857,82.75207222210749
4,415.839,0.8860442320648128,0.2724382894738465,49.52813385806108,82.75207222210749
5,415.941,0.8880590536021667,0.2775086901517419,49.43694373642254,82.75207222210749
6,416.046,0.8901062245901923,0.28275434377689407,49.34297909612701,82.75207222210749
7,416.145,0.8921734028198116,0.28764044825451085,49.25440818436018,82.75207222210749
8,416.244,0.8941600603188145,0.2925538491140973,49.165872833448255,82.75207222210749
9,416.346,0.8962825974507798,0.2975642176144895,49.07477639234036,82.75207222210749
10,416.448,0.8985149657953496,0.3025260614750934,48.9836832408071,82.75207222210749
11,416.55,0.9008768851556479,0.3074393037301059,48.89252237241594,82.75207222210749
12,416.652,0.903262344690047,0.3123193944588161,48.80148670604216,82.75207222210749
13,416.76,0.9056363362506146,0.3175596252716285,48.70508665599399,82.75207222210749
14,416.862,0.9077815574719192,0.32256078931018795,48.61398747485613,82.75207222210749
15,416.961,0.9098485125959488,0.32740370084479126,48.52567153929228,82.75207222210749
16,417.066,0.9119135385093452,0.33261829298625883,48.431850100506,82.75207222210749
17,417.165,0.9140104320585742,0.33747609563896186,48.34337101340374,82.75207222210749
18,417.267,0.9160257656265168,0.34251490845179583,48.252367467676756,82.75207222210749
19,417.366,0.9178635927405235,0.3474661490490402,48.16395062110252,82.75207222210749
20,417.468,0.9198862753361405,0.35254152150415474,48.07271233277625,82.75207222210749
21,417.57,0.9220727531026343,0.35756952674974984,47.98135075507305,82.75207222210749
22,417.672,0.9241786336619222,0.3626423907349019,47.889926690125826,82.75207222210749
23,417.774,0.926290758734863,0.36772799513795634,47.7984119944851,82.75207222210749
24,417.876,0.9285261305854983,0.37278060803103724,47.70678049307638,82.75207222210749
25,417.978,0.9306267899424858,0.37787154337598877,47.61526234122865,82.75207222210749
26,418.077,0.932620885490361,0.38283321437223117,47.526422667797654,82.75207222210749
27,418.176,0.9345816740402313,0.3878223043322998,47.437498652344736,82.75207222210749
28,418.275,0.9365671694556479,0.3928002610126006,47.348582676149924,82.75207222210749
29,418.374,0.9384919283070415,0.3978032565973,47.25965928685132,82.75207222210749
30,418.47,0.9404565719618396,0.40262077977603294,47.1734005164207,82.75207222210749
31,418.578,0.9426593522529696,0.4080509654821228,47.076315265888525,82.75207222210749
32,418.68,0.9446224792438167,0.41320897976436416,46.984722478315135,82.75207222210749
33,418.782,0.9466320039422529,0.4183594060042923,46.893068224838075,82.75207222210749
34,418.884,0.9485423194653739,0.4235444864416946,46.80143175427415,82.75207222210749
35,418.986,0.9505410625423154,0.42870785018090485,46.70972531945871,82.75207222210749
36,419.085,0.9524989180949739,0.43372681496473203,46.6206301102761,82.75207222210749
37,419.184,0.9545470524212846,0.43873092601905234,46.5314087457319,82.75207222210749
38,419.286,0.9565814722546998,0.44391280039534886,46.4395089981376,82.75207222210749
39,419.385,0.9586263789878278,0.44888676448742737,46.35047397888059,82.75207222210749
40,419.487,0.9608422253386916,0.45399422834878306,46.258571083672464,82.75207222210749
41,419.586,0.9629761013694524,0.4589618359993288,46.16935293226639,82.75207222210749
42,419.685,0.9651639161026999,0.4639224378237792,46.08003811376511,82.75207222210749
43,419.787,0.9675119361582114,0.46898694044112793,45.98803980600288,82.75207222210749
44,419.886,0.9698116635699071,0.47390860152220443,45.89865576955033,82.75207222210749
45,419.988,0.9722561601239802,0.4789619047195206,45.80645792945293,82.75207222210749
46,420.087,0.9746335510348887,0.4838900768047144,45.71682305212758,82.75207222210749
47,420.186,0.9769926150916121,0.48884925845055227,45.627059864519595,82.75207222210749
48,420.285,0.9794254378830972,0.49377453213081335,45.537286025782585,82.75207222210749
49,420.387,0.9820656561149781,0.49879976431646467,45.4446844199247,82.75207222210749
50,420.492,0.9847204096054751,0.5039857416897355,45.34947167844655,82.75207222210749
51,420.594,0.9815003089425878,0.5090632697742414,45.256895536058025,82.75207222210749
52,420.693,0.9790276338436215,0.5139862556200134,45.16702108581991,82.75207222210749
53,420.795,0.9764467904402986,0.5190495630374685,45.07437771898958,82.75207222210749
54,420.897,0.9739162444378147,0.5241576416761753,44.9816228683848,82.75207222210749
55,420.999,0.9715101614034942,0.5293011581694992,44.88900926482996,82.75207222210749
56,421.101,0.9691339023200449,0.5344642408163348,44.79636240995598,82.75207222210749
57,421.203,0.9667360372837936,0.5396319065310335,44.7036309216969,82.75207222210749
58,421.305,0.9643157167629104,0.5448068329119382,44.61079662319298,82.75207222210749
59,421.41,0.9619210537102563,0.5501842568796821,44.51519645444747,82.75207222210749
60,421.515,0.9593768778560513,0.5554744244085621,44.41970102086663,82.75207222210749
61,421.617,0.9569895458862181,0.5606420051225992,44.32699834922729,82.75207222210749
62,421.722,0.9544832665929581,0.5659674186094469,44.2314034185567,82.75207222210749
63,421.824,0.9521669358908422,0.571212894476854,44.13843348919373,82.75207222210749
64,421.929,0.9496589946833897,0.5765525921011906,44.042751302027746,82.75207222210749
65,422.031,0.9472218243368744,0.5817626449452561,43.94966767932701,82.75207222210749
66,422.136,0.944725265417599,0.5871208122748495,43.853909289939374,82.75207222210749
67,422.238,0.9423029451616788,0.5923382190439541,43.76082315330354,82.75207222210749
68,422.343,0.9396808856531873,0.5976507557133641,43.66498069043864,82.75207222210749
69,422.445,0.9370452448501219,0.6027431782115532,43.57201133903811,82.75207222210749
70,422.547,0.9345058626973731,0.6078657178887359,43.479148451438725,82.75207222210749
71,422.652,0.9318248159004334,0.6131339235720858,43.38339047375433,82.75207222210749
72,422.754,0.9291310801629236,0.6182253576681795,43.29025433499585,82.75207222210749
73,422.859,0.9262528472272263,0.6234356539374133,43.19423233827844,82.75207222210749
74,422.961,0.9233459715079476,0.6284162685107827,43.1010531507313,82.75207222210749
75,423.063,0.9205086511697482,0.6334325579966794,43.00789777652232,82.75207222210749
76,423.165,0.9176969891221137,0.6384513684971924,42.91480889549068,82.75207222210749
77,423.276,0.9145949412291378,0.643884936903973,42.81352944528754,82.75207222210749
78,423.387,0.9113660533715796,0.649250180092318,42.71221667025434,82.75207222210749
79,423.495,0.9082158712558943,0.6544807436314354,42.61355719421538,82.75207222210749
80,423.609,0.9047532199553621,0.6598963655403494,42.50952655339555,82.75207222210749
81,423.726,0.9013807798115222,0.6655396542313706,42.40290507938765,82.75207222210749
82,423.84,0.8982057454599008,0.6711350879553455,42.298839204255124,82.75207222210749
83,423.954,0.8950133173071342,0.6767140396804346,42.19480986517908,82.75207222210749
84,424.065,0.892052504215641,0.682197779421992,42.093688535988434,82.75207222210749
85,424.182,0.8887988254234347,0.6878781342604288,41.9872461798546,82.75207222210749
86,424.296,0.8913212014942011,0.6820197157480904,41.883533114903685,82.75207222210749
87,424.428,0.8942418474708782,0.6752362837864354,41.763444302855255,82.75207222210749
88,424.545,0.8968306018592965,0.6692236963658776,41.65700194672142,82.75207222210749
89,424.662,0.8994193562477149,0.6632111089453198,41.55055959058759,82.75207222210749
90,424.77,0.901808975683178,0.6576610282494203,41.45230510800251,82.75207222210749
91,424.881,0.9042649734362926,0.6519567786453013,41.35132133423452,82.75207222210749
92,424.998,0.906853727824711,0.6459441912247434,41.24487897810069,82.75207222210749
93,425.106,0.9092433472601739,0.6403941105288439,41.14662449551561,82.75207222210749
94,425.217,0.9116993450132886,0.6346898609247249,41.04564072174762,82.75207222210749
95,425.328,0.9141553427664034,0.628985611320606,40.944656947979624,82.75207222210749
96,425.436,0.916389378399705,0.6233871214978709,40.84649773204981,82.75207222210749
97,425.547,0.9186010191504405,0.6175922748043967,40.74556489072502,82.75207222210749
98,425.655,0.920798723682446,0.6119900901187018,40.64746923325538,82.75207222210749
99,425.763,0.9230264897110201,0.6064193036816768,40.54948955302886,82.75207222210749
100,425.871,0.9253724382089354,0.6009223126391692,40.451657479797646,82.75207222210749
101,425.973,0.927657210099419,0.5957552094602441,40.35922797496149,82.75207222210749
102,426.078,0.9301094219914295,0.5905105476996498,40.26424788985831,82.75207222210749
103,426.183,0.9325654340225624,0.5852935339220516,40.169417667505805,82.75207222210749
104,426.291,0.9350343428363244,0.5798920622931353,40.07182674496851,82.75207222210749
105,426.396,0.9372761750826284,0.574596918345251,39.97709925860187,82.75207222210749
106,426.501,0.9395012409105419,0.5692960569706108,39.88237973781096,82.75207222210749
107,426.609,0.9417309600045956,0.5638347376847872,39.78504494168331,82.75207222210749
108,426.738,0.944390400701321,0.5573130380290342,39.66880234973664,82.75207222210749
109,426.84,0.946643832875776,0.5522017802694138,39.57678081763339,82.75207222210749
110,427.008,0.9501354473443726,0.5436943444931593,39.42524360293743,82.75207222210749
111,427.104,0.9520361219210326,0.5387882832684043,39.33860951704132,82.75207222210749
112,427.197,0.9537750195458832,0.5340091700739481,39.254755165418324,82.75207222210749
113,427.293,0.9554401043855583,0.5290353548585023,39.16822503367175,82.75207222210749
114,427.389,0.9572346109842,0.5241102848437281,39.08171612558206,82.75207222210749
115,427.485,0.9591476401832866,0.5192259930204004,38.99518316190926,82.75207222210749
116,427.584,0.9612627114536453,0.5142589130511118,38.90601544130962,82.75207222210749
117,427.683,0.9634195409939468,0.5093258614582042,38.816941797160624,82.75207222210749
118,427.776,0.9653955744790421,0.5046474633421643,38.73313251062568,82.75207222210749
119,427.875,0.9674433049298887,0.4996669132296442,38.644051635227925,82.75207222210749
120,427.974,0.9695411333719732,0.49472718354241013,38.55508818204848,82.75207222210749
121,428.07,0.9714299899612996,0.48987004099985193,38.46877332911432,82.75207222210749
122,428.166,0.9733031994729154,0.485022964891033,38.382554742550774,82.75207222210749
123,428.259,0.9750096628281911,0.48028989489692275,38.29904814472981,82.75207222210749
124,428.355,0.9768490753027408,0.4754230862545234,38.2127888143849,82.75207222210749
125,428.451,0.9787535284740116,0.4705772656561701,38.12650510336655,82.75207222210749
126,428.547,0.9805802279417704,0.46570715317595174,38.04025465438524,82.75207222210749
127,428.64,0.9824491173893444,0.46104035807532096,37.95677493605672,82.75207222210749
128,428.733,0.9842948217175985,0.4563391338642625,37.873145081701885,82.75207222210749
129,428.826,0.9862012772341007,0.4516589136340148,37.78949565492654,82.75207222210749
130,428.916,0.9807896891256336,0.4471192357911987,37.708685629045505,82.75207222210749
131,429.012,0.9788552653964269,0.4423099106271639,37.62254809316265,82.75207222210749
132,429.114,0.9766830368062289,0.4372377970986869,37.53096346239259,82.75207222210749
133,429.216,0.9745367919149105,0.4321797865764925,37.43952707429509,82.75207222210749
134,429.321,0.972440103676972,0.4269544728286375,37.34556685876366,82.75207222210749
135,429.426,0.9703184650717741,0.4217583853964813,37.251720112456034,82.75207222210749
136,429.534,0.9682439168582235,0.41637006203686966,37.15518573931696,82.75207222210749
137,429.642,0.9661499120093661,0.4109965825953612,37.05869497643933,82.75207222210749
138,429.765,0.9635928784983794,0.4049360259324108,36.948739717688525,82.75207222210749
139,429.876,0.9612600147419386,0.39949265848119364,36.84960107740275,82.75207222210749
140,429.984,0.9590574799685008,0.39417996337555244,36.75321213504678,82.75207222210749
141,430.095,0.9568265956751775,0.38873683648962215,36.65432723779884,82.75207222210749
142,430.209,0.9544362108960283,0.3831909169450322,36.55278519284865,82.75207222210749
143,430.32,0.9520051859130516,0.377805553637022,36.453733366774266,82.75207222210749
144,430.428,0.949733955777002,0.3725151876080604,36.357305179362946,82.75207222210749
145,430.533,0.9475138278836821,0.3673825646871155,36.26358860012753,82.75207222210749
146,430.638,0.9454353757251293,0.3621903843260759,36.169868636705274,82.75207222210749
147,430.74,0.9433808647267364,0.35714060009329207,36.07870616953637,82.75207222210749
148,430.842,0.9412089762973288,0.35212457090833116,35.98745207231284,82.75207222210749
149,430.947,0.9389460493501381,0.34696339263246295,35.89345856978294,82.75207222210749
150,431.052,0.9366768553699512,0.34183348947125675,35.79963208507184,82.75207222210749
151,431.148,0.9345869012406105,0.337151394003586,35.7138555889061,82.75207222210749
152,431.256,0.9320722611761598,0.3319301741040386,35.617184701581586,82.75207222210749
153,431.358,0.929633056940365,0.327052421963398,35.52600999999123,82.75207222210749
154,431.46,0.9270413560139567,0.32224518544480346,35.43478589649653,82.75207222210749
155,431.562,0.924602912345924,0.31736475006070614,35.34359801057012,82.75207222210749
156,431.664,0.9222996982540357,0.3124248557034232,35.25244375303862,82.75207222210749
157,431.766,0.919902304028699,0.3075366495078442,35.161327850362404,82.75207222210749
158,431.865,0.9177167821736907,0.3027091651245155,35.0727968499129,82.75207222210749
159,431.964,0.9155539500279545,0.29788234148703696,34.984329340474375,82.75207222210749
160,432.06,0.9135448102024059,0.2931665580497104,34.89856200113465,82.75207222210749
161,432.159,0.9113796024785907,0.28836425440307234,34.810231392751696,82.75207222210749
162,432.336,0.9074991879505768,0.2797851119872904,34.652322143794414,82.75207222210749
163,432.429,0.9054924132027994,0.2752606589936589,34.56933888475803,82.75207222210749
164,432.519,0.9035610998446814,0.270900277546528,34.489166352333136,82.75207222210749
165,432.609,0.9015196456518229,0.2665790722369415,34.408928498228285,82.75207222210749
166,432.699,0.899554481263479,0.26222203624366935,34.32868710685408,82.75207222210749
167,432.792,0.8974514781100711,0.2577308822325127,34.24564231505797,82.75207222210749
168,432.885,0.8952460205311985,0.2532882786334082,34.16259256585189,82.75207222210749
169,432.978,0.8930686585104322,0.2488587896749826,34.07969770815957,82.75207222210749
170,433.068,0.8909518081907967,0.24455699234428768,33.999362141843186,82.75207222210749
171,433.161,0.8887331666270804,0.2401116836830171,33.91625929446523,82.75207222210749
172,433.26,0.8863718652781456,0.2353912597232065,33.82786320392533,82.75207222210749
173,433.359,0.8841310236904809,0.23063458675804024,33.73959518302875,82.75207222210749
174,433.476,0.8815769777856517,0.2249556560246982,33.63519685833952,82.75207222210749
175,433.584,0.8791045046071545,0.21976827548971753,33.53883788986093,82.75207222210749
176,433.689,0.8767537297714101,0.21472056714360468,33.445274585392234,82.75207222210749
177,433.791,0.8743680699007932,0.20985183574629035,33.35430365439402,82.75207222210749
178,433.89,0.8720260093408777,0.20511500420832385,33.26586837581544,82.75207222210749
179,433.989,0.8696958543583257,0.20039763142281491,33.177578501816456,82.75207222210749
180,434.1,0.8669298953739233,0.19518903530370565,33.07859824163578,82.75207222210749
181,434.208,0.8642076518587334,0.1901260623647562,32.98222687708908,82.75207222210749
182,434.313,0.8614181422243835,0.18529886270920062,32.88861893676253,82.75207222210749
183,434.418,0.8584981571849639,0.18057835398447877,32.795168441608155,82.75207222210749
184,434.517,0.8557677216685999,0.17612720577081628,32.70713206167723,82.75207222210749
185,434.622,0.852770750081379,0.1714606487796535,32.61371093598607,82.75207222210749
186,434.727,0.8498839126784409,0.16671507631933236,32.520234638126745,82.75207222210749
187,434.829,0.847069663009071,0.16208580601166844,32.42929073371597,82.75207222210749
188,434.931,0.844123040808815,0.15755443626026788,32.33842621796439,82.75207222210749
189,435.027,0.8413194818560152,0.153329835898997,32.25301544576939,82.75207222210749
190,435.126,0.8384152185351255,0.14895623604197578,32.16479869950141,82.75207222210749
191,435.222,0.8354891746774765,0.14478524785761088,32.079229467432256,82.75207222210749
192,435.321,0.8323268554019709,0.14055939412328924,31.99083340322722,82.75207222210749
193,435.417,0.8293040906563315,0.136439422406496,31.9051685944857,82.75207222210749
194,435.51,0.8263806478185902,0.1324323276492763,31.822117195908902,82.75207222210749
195,435.606,0.8232576434740407,0.12837759177950367,31.736400597715157,82.75207222210749
196,435.699,0.8202499577641292,0.12443545055516123,31.653359959072553,82.75207222210749
197,435.798,0.8171128851074275,0.12021771811957058,31.56510217434086,82.75207222210749
198,435.897,0.8139094863470456,0.11603034776507533,31.476743883716495,82.75207222210749
199,435.996,0.8107249617748312,0.11179960959027446,31.388237511347118,82.75207222210749
200,436.092,0.8077188132459122,0.10761247190270513,31.302287272917134,82.75207222210749
201,436.191,0.8045018679713447,0.10337143996020026,31.213603248466434,82.75207222210749
202,436.29,0.8011588560804744,0.09921092586604924,31.124828859443298,82.75207222210749
203,436.392,0.7975827018287841,0.09500319405509362,31.033215837752074,82.75207222210749
204,436.488,0.7941775990998022,0.0910860639788658,30.94703695002273,82.75207222210749
205,436.587,0.790631998015395,0.08705238026316245,30.858049608112797,82.75207222210749
206,436.68,0.7872640766632656,0.08330895812765243,30.774516222936075,82.75207222210749
207,436.773,0.7839986302214516,0.07949697351606971,30.691085784034257,82.75207222210749
208,436.866,0.7807416350912425,0.07568650288642151,30.607697872997047,82.75207222210749
209,436.962,0.7773434787936475,0.07180213169950521,30.521706218239807,82.75207222210749
210,437.055,0.7740580123869145,0.06805566355476159,30.438508718005167,82.75207222210749
211,437.145,0.7707898944768042,0.06449319784584039,30.357917094092432,82.75207222210749
212,437.238,0.767381302416453,0.06082473992492195,30.274562152961067,82.75207222210749
213,437.337,0.7636969995766213,0.05694087037555582,30.185684241362953,82.75207222210749
214,437.433,0.7600386336103627,0.053284272928449596,30.099619168677503,82.75207222210749
215,437.532,0.7563386652417808,0.04945164331216369,30.010908867661392,82.75207222210749
216,437.637,0.7523446455640366,0.04545709103213077,29.916830267244187,82.75207222210749
217,437.742,0.7484373790221607,0.04137095895154484,29.822720768623476,82.75207222210749
218,437.847,0.7445202647826575,0.037275515104568474,29.72852463986071,82.75207222210749
219,437.952,0.7405995933136853,0.03317850906804472,29.63430554862508,82.75207222210749
220,438.066,0.736360652356904,0.02872027946294543,29.532042563801458,82.75207222210749
221,438.174,0.7323251156182062,0.024535459886920914,29.435253851979073,82.75207222210749
222,438.291,0.7278521277252095,0.020085046443118964,29.33032440180572,82.75207222210749
223,438.531,0.7186667561476879,0.010936925416405492,29.114952998553782,82.75207222210749
224,438.636,0.7146537805086839,0.024321583331716554,29.02072544793579,82.75207222210749
225,438.735,0.710764643003853,0.028008956332572298,28.93180955209564,82.75207222210749
226,438.84,0.7067293239625381,0.03200921691316801,28.83751787325526,82.75207222210749
227,438.945,0.7025699388885818,0.0359144695207527,28.743076922734186,82.75207222210749
228,439.053,0.6982354491131251,0.03989453414833482,28.6458338825778,82.75207222210749
229,439.167,0.6937485820227369,0.04416270218275674,28.543309182004222,82.75207222210749
230,439.284,0.6892529105816128,0.04866299753415544,28.4380514619103,82.75207222210749
231,439.419,0.6840113467602652,0.05377178687455229,28.31673039167926,82.75207222210749
