,t,x,y,energy,sight
0,437.532,0.3200084124388881,0.7906671582133452,49.91566014130918,75.72974163635668
1,437.637,0.31489797621033055,0.788186086942855,49.82629176028195,75.72974163635668
2,437.742,0.30984015154157085,0.7855403890021883,49.73674971648442,75.72974163635668
3,437.847,0.3048239380224372,0.7827930294538245,49.64713538289628,75.72974163635668
4,437.952,0.2997928464052755,0.7800465627041359,49.55744024472123,75.72974163635668
5,438.066,0.29426059832437174,0.7771620542678502,49.45995550933045,75.72974163635668
6,438.174,0.2890731767001252,0.7743025400186854,49.36752060693301,75.72974163635668
7,438.291,0.28342689273957944,0.77124277481845,49.26735030866644,75.72974163635668
8,438.531,0.2718655430084066,0.7650487668340847,49.06224005696375,75.72974163635668
9,438.636,0.2667663119668634,0.7624092972652217,48.97248133350599,75.72974163635668
10,438.735,0.2619824834385486,0.7598951083512357,48.88791236000866,75.72974163635668
11,438.84,0.25688294481611995,0.757265420151534,48.798180621762604,75.72974163635668
12,438.945,0.25116079180245726,0.7568440900226286,48.708448883516546,75.72974163635668
13,439.053,0.24527514870268993,0.7564107218900402,48.6161533813206,75.72974163635668
14,439.167,0.23906252543071332,0.7559532777500859,48.51873035122488,75.72974163635668
15,439.284,0.23268641207263205,0.7554837956064485,48.418743557179276,75.72974163635668
16,439.419,0.22530828174647594,0.755164533284651,48.30332256848465,75.72974163635668
17,439.545,0.21839243851446716,0.7550646906098144,48.195443576556286,75.72974163635668
18,439.674,0.21129070626471758,0.7548450058311194,48.0848431712383,75.72974163635668
19,439.788,0.2050090317912189,0.7546489465281617,47.98706627407285,75.72974163635668
20,439.905,0.19856431010246617,0.7545891587475764,47.8867490819398,75.72974163635668
21,440.022,0.19211248897343264,0.7546618224778177,47.78638560951641,75.72974163635668
22,440.133,0.18599374270677652,0.7547670922522315,47.69117982947421,75.72974163635668
23,440.244,0.19146949848310058,0.7574995337025058,47.59597404943201,75.72974163635668
24,440.358,0.19709324765878475,0.7603058249217065,47.498195140199485,75.72974163635668
25,440.487,0.2034569638312695,0.7634813649855388,47.38755058501531,75.72974163635668
26,440.595,0.20878472620823346,0.7661399566668867,47.29491793416344,75.72974163635668
27,440.703,0.2141124885851974,0.7687985483482348,47.202285283311575,75.72974163635668
28,440.823,0.2200322245596018,0.7717525391052881,47.09936011569839,75.72974163635668
29,440.934,0.2255079803359259,0.7744849805555625,47.00415433565619,75.72974163635668
30,441.042,0.23083574271288984,0.7771435722369103,46.91152168480432,75.72974163635668
31,441.153,0.23631149848921393,0.7798760136871847,46.81631590476212,75.72974163635668
32,441.264,0.24178725426553802,0.782608455137459,46.72111012471992,75.72974163635668
33,441.378,0.2474110034412222,0.7854147463566596,46.6233312154874,75.72974163635668
34,441.501,0.25347873281498673,0.7884425868826394,46.51783291868388,75.72974163635668
35,441.615,0.25910248199067093,0.7912488781018399,56.420054009451356,75.72974163635668
36,441.738,0.2650889965182256,0.7944452314039939,56.31452275294665,75.72974163635668
37,441.879,0.2719664160727978,0.7980169743225737,56.19373937767447,75.72974163635668
38,442.002,0.2779779502917284,0.8011096239604092,56.08837442134958,75.72974163635668
39,442.131,0.284373760979514,0.804225692900229,55.977713967194994,75.72974163635668
40,442.245,0.2900991404350292,0.8068658152363974,55.87980878931,75.72974163635668
41,442.356,0.2957152599460516,0.8093618850100344,55.78443550167253,75.72974163635668
42,442.467,0.30129780914290966,0.8118888307262218,55.68917737580718,75.72974163635668
43,442.575,0.30664983658259964,0.8144534387413852,55.59666947856405,75.72974163635668
44,442.677,0.3117210262934832,0.8167879566881624,55.50944374506542,75.72974163635668
45,442.779,0.3169666347671879,0.8186985929351216,55.422218011566784,75.72974163635668
46,442.878,0.3220579606387247,0.8205530339983467,55.337557740818106,75.72974163635668
47,442.974,0.32699500390809383,0.8223512798778376,55.25546293281939,75.72974163635668
48,443.07,0.3319320471774629,0.8241495257573286,55.173368124820676,75.72974163635668
49,443.166,0.336869090446832,0.8259477716368195,55.09127331682196,75.72974163635668
50,443.259,0.3416518511140333,0.8276898223325764,55.0117439715732,75.72974163635668
51,443.355,0.34658889438340235,0.8294880682120673,54.92964916357449,75.72974163635668
52,443.445,0.35121737244843587,0.8311739237240902,54.85268528107569,75.72974163635668
53,443.538,0.35600013311563716,0.8329159744198471,54.773155935826935,75.72974163635668
54,443.628,0.3606286111806707,0.8346018299318698,54.69619205332814,75.72974163635668
55,443.721,0.365411371847872,0.8363438806276268,54.61666270807938,75.72974163635668
56,443.811,0.3700398499129055,0.8380297361396496,54.53969882558059,75.72974163635668
57,443.901,0.374668327977939,0.8397155916516723,54.46273494308179,75.72974163635668
58,443.991,0.3792968060429725,0.8414014471636951,54.385771060583,75.72974163635668
59,444.081,0.38392528410800597,0.843087302675718,54.3088071780842,75.72974163635668
60,444.171,0.3885537621730395,0.8447731581877408,54.231843295585406,75.72974163635668
61,444.258,0.3930279576359052,0.8464028185160295,54.15744487583657,75.72974163635668
62,444.348,0.3976564357009387,0.8480886740280523,64.08048099333777,75.72974163635668
63,444.435,0.40213602047839697,0.8497337402850578,64.0060163136774,75.72974163635668
64,444.525,0.40674902175811417,0.851490621532062,63.92898656693372,75.72974163635668
65,444.609,0.4110983113666761,0.8530563574427716,63.85699367431557,75.72974163635668
66,444.696,0.4142687505102828,0.8566437930894315,63.78242960696105,75.72974163635668
67,444.783,0.4174391896538895,0.8602312287360914,63.70786553960654,75.72974163635668
68,444.87,0.4206096287974962,0.8638186643827511,63.63330147225202,75.72974163635668
69,444.957,0.4237800679411029,0.867406100029411,63.55873740489751,75.72974163635668
70,445.044,0.4269505070847096,0.8709935356760707,63.48417333754299,75.72974163635668
71,445.131,0.4301209462283163,0.8745809713227306,63.409609270188476,75.72974163635668
72,445.221,0.4334007108596335,0.8782921116468614,63.3324740280976,75.72974163635668
73,445.311,0.43668047549095074,0.8820032519709923,63.255338786006725,75.72974163635668
74,445.401,0.439960240122268,0.885714392295123,63.17820354391585,75.72974163635668
75,445.491,0.4432400047535852,0.889425532619254,63.101068301824974,75.72974163635668
76,445.584,0.44662909487261304,0.8932603776208558,63.02136188499773,75.72974163635668
77,445.674,0.4499088595039303,0.8969715179449865,62.944226642906855,75.72974163635668
78,445.764,0.4455662533964359,0.8993529441431674,62.86709140081598,75.72974163635668
79,445.854,0.4412236472889416,0.9017343703413483,62.789956158725104,75.72974163635668
80,445.944,0.4368810411814472,0.9041157965395291,62.71282091663423,75.72974163635668
81,446.034,0.43253843507395284,0.9064972227377099,72.63568567454335,75.72974163635668
82,446.127,0.43695731142859257,0.9090789856593602,72.55597925771612,75.72974163635668
83,446.217,0.44123364338469545,0.9115774659061187,72.47884401562524,75.72974163635668
84,446.304,0.44536743094226167,0.9139926634779851,72.40427994827073,75.72974163635668
85,446.394,0.4496437628983646,0.9164911437247435,72.32714470617985,75.72974163635668
86,446.487,0.4540626392530043,0.9190729066463937,72.24743828935262,75.72974163635668
87,446.577,0.45833897120910716,0.9215713868931521,72.17030304726174,75.72974163635668
88,446.67,0.4627578475637469,0.9241531498148025,72.0905966304345,75.72974163635668
89,446.76,0.46703417951984977,0.9266516300615608,82.01346138834363,75.72974163635668
90,446.85,0.4712921972155339,0.9291833075421723,81.93631924201573,75.72974163635668
91,446.94,0.4756121910686645,0.9316373087484171,81.85908397823124,75.72974163635668
92,447.033,0.4800069104563439,0.9342451407343727,81.77942613184754,75.72974163635668
93,447.123,0.48425120562248314,0.9367505829373775,81.70244512731564,75.72974163635668
94,447.21,0.48839360570927576,0.9390953015487133,81.62805815693564,75.72974163635668
95,447.3,0.49270813477126224,0.9414544677426709,81.55114894974294,75.72974163635668
96,447.39,0.4970582460985926,0.9437579069634735,81.4742082134504,75.72974163635668
97,447.477,0.5013258226184066,0.9458823849929292,81.39977527235557,75.72974163635668
98,447.564,0.5055748760797859,0.9480291395893043,81.32538438503556,75.72974163635668
99,447.648,0.5096403396716874,0.9501607232184023,81.2535972597682,75.72974163635668
100,447.735,0.513879356035854,0.9523470747552505,81.17914836256288,75.72974163635668
101,447.822,0.5180388439313853,0.9546518131615503,81.10479100359969,75.72974163635668
102,447.909,0.5221268563621599,0.9570844748664367,81.0304225231962,75.72974163635668
103,447.996,0.52616104703311,0.9595776895395349,80.95614760534575,75.72974163635668
104,448.083,0.5302255108156128,0.9620331888449882,80.88183322036912,75.72974163635668
105,448.173,0.5344416195545392,0.9645824191140433,80.8048633425243,75.72974163635668
106,448.26,0.5385175991172213,0.9670804037850258,80.73034465369861,75.72974163635668
107,448.35,0.542808139742336,0.969543102315465,80.65324548223961,75.72974163635668
108,448.437,0.5469388012240616,0.9719755215976245,80.57864290712467,75.72974163635668
109,448.527,0.5511595223747383,0.9745976784494388,80.50140395635493,75.72974163635668
110,448.614,0.5552145024954672,0.9771898386722085,80.42667937493486,75.72974163635668
111,448.701,0.5593382714374735,0.9796941770258536,80.35187840905573,75.72974163635668
112,448.785,0.5633766499039897,0.9820029537988063,80.27969843489322,75.72974163635668
113,448.872,0.5674761185492107,0.9845127092373189,80.20501220445476,75.72974163635668
114,448.959,0.5715319645301379,0.9816259607590079,80.13021671088003,75.72974163635668
115,449.046,0.5755510169921625,0.9789925853506511,80.05554184451101,75.72974163635668
116,449.133,0.5794950941426047,0.9762860200541514,79.98100461713622,75.72974163635668
117,449.22,0.5834645700876965,0.9735903695510009,79.90637252173647,75.72974163635668
118,449.304,0.5873806784024203,0.9711004393327128,79.83426368959344,75.72974163635668
119,449.391,0.591449811389767,0.968505157065642,79.75945201228204,75.72974163635668
120,449.478,0.5955008199529426,0.965919727730123,79.68477204059548,75.72974163635668
121,449.568,0.5996180776755429,0.9631684540151852,79.60764203264183,75.72974163635668
122,449.655,0.6036480840460844,0.9605576439489848,79.53298726428649,75.72974163635668
123,449.742,0.6076894683350954,0.9579860329181136,79.45840676471614,75.72974163635668
124,449.832,0.611917926464452,0.9554309376899764,79.38134983015148,75.72974163635668
125,449.919,0.6160203334347377,0.953002836802818,79.30691702289455,75.72974163635668
126,450.009,0.6202471475764197,0.950425032432706,79.2297936620074,75.72974163635668
127,450.096,0.6243607128337805,0.9480143197553241,79.15535579526022,75.72974163635668
128,450.183,0.6284701588104447,0.9456175241458624,79.0809856420575,75.72974163635668
129,450.27,0.6325074630265355,0.943096226705363,79.00659895250736,75.72974163635668
130,450.357,0.6365628475257824,0.9406445958809254,78.9323471043509,75.72974163635668
131,450.444,0.6406848745030358,0.938275109225928,78.85799485016209,75.72974163635668
132,450.531,0.6448665437890753,0.9360154131416927,78.78365133937193,75.72974163635668
133,450.618,0.648969870138355,0.9336548894924256,78.70943143353671,75.72974163635668
134,450.702,0.6529679886590511,0.9314371090093021,78.63776175566521,75.72974163635668
135,450.789,0.6570640240031517,0.9290769556318977,78.56358347128173,75.72974163635668
136,450.882,0.6614840157095229,0.9266514244307965,78.48436365043253,75.72974163635668
137,450.969,0.6656084264129499,0.9243865295132728,78.41032602833829,75.72974163635668
138,451.056,0.6697721802451377,0.9222145042971042,78.33634693119525,75.72974163635668
139,451.143,0.6739356603539151,0.9200311904435672,78.26233590264815,75.72974163635668
140,451.23,0.6781233231049245,0.9179330629000468,78.18843587061095,75.72974163635668
141,451.32,0.6824092216987674,0.9157070563026645,78.11208925088837,75.72974163635668
142,451.41,0.6867488255361697,0.9135636467803048,78.03567489956615,75.72974163635668
143,451.497,0.6909473943678421,0.9115170831433492,77.96185850864845,75.72974163635668
144,451.587,0.6953375970262351,0.909523731953664,77.88556275432234,75.72974163635668
145,451.674,0.6995516090212146,0.9074879582112072,77.81168759181487,75.72974163635668
146,451.761,0.7038125039048275,0.905530323358111,77.737754169488,75.72974163635668
147,451.848,0.7080889011592664,0.9036059593484447,77.66381856966272,75.72974163635668
148,451.935,0.7102807835375304,0.8994603107913036,77.58988296983745,75.72974163635668
149,452.022,0.7124726659157945,0.8953146622341626,77.51594737001217,75.72974163635668
150,452.109,0.7146645482940586,0.8911690136770215,77.4420117701869,75.72974163635668
151,452.196,0.7167855070574818,0.88699429067607,77.3681198558114,75.72974163635668
152,452.283,0.7188831476849108,0.8827930756970769,77.29414364521872,75.72974163635668
153,452.37,0.7210369721169586,0.8786049728559273,77.22007974805976,75.72974163635668
154,452.46,0.723237770856009,0.874258672619361,77.14346277350944,75.72974163635668
155,452.55,0.7255687822177316,0.8699922890916831,77.06691036744077,75.72974163635668
156,452.655,0.7282572696458052,0.8649784851338138,76.97748911932034,75.72974163635668
157,452.769,0.7312658308864195,0.8595717546872106,76.88033502322672,75.72974163635668
158,452.871,0.7338110523844354,0.8546651399787756,76.79346293547017,75.72974163635668
159,452.97,0.7361488808673672,0.8498213415947438,76.70905916625658,75.72974163635668
160,453.072,0.7385589764069428,0.8448476069758915,76.62219079760044,75.72974163635668
161,453.174,0.7410003825841596,0.8399182748084171,76.53548946544628,75.72974163635668
162,453.279,0.7436591898806886,0.8349127261079211,76.44620426492227,75.72974163635668
163,453.381,0.7463751010468476,0.8300965303796263,76.35932124040956,75.72974163635668
164,453.483,0.7489953208431083,0.8252370800273129,76.27249156173104,75.72974163635668
165,453.594,0.7519027425731225,0.8199550950725729,76.17786402883966,75.72974163635668
166,453.696,0.7545027825492795,0.8150598964809068,76.0908935697188,75.72974163635668
167,453.801,0.7570856768320628,0.8099743621539769,76.00137805590496,75.72974163635668
168,453.9,0.7595069774720029,0.8051752901256037,75.9169945427199,75.72974163635668
169,453.999,0.7619623492227533,0.800385567969844,75.83256551816041,75.72974163635668
170,454.101,0.7644537866166214,0.7954598483199998,75.74574154059844,75.72974163635668
171,454.2,0.7668261248444765,0.7906840011843499,75.66163122204948,75.72974163635668
172,454.302,0.7693941139235748,0.7858369108910952,75.57502888164589,75.72974163635668
173,454.407,0.7720835896932825,0.7808660724038081,75.4858467282442,75.72974163635668
174,454.506,0.7747002284748399,0.7762242037598908,75.4017621998534,75.72974163635668
175,454.605,0.7774293089319515,0.771631841280351,75.31759134549554,75.72974163635668
176,454.701,0.7800735941653687,0.767180722488542,75.23598942544697,75.72974163635668
177,454.8,0.7827373523090254,0.7625390400770018,75.1517568381346,75.72974163635668
178,454.896,0.7853402554545773,0.7580747818309045,75.07021678159437,75.72974163635668
179,454.995,0.7881159918954453,0.7535513400421887,74.98626915256966,75.72974163635668
180,455.091,0.7908600549076492,0.7491809202860551,74.90477510989831,75.72974163635668
181,455.187,0.7934826792135714,0.7447462179892859,74.82333425743384,75.72974163635668
182,455.283,0.791401565696374,0.749459360172535,74.74189340496937,75.72974163635668
183,455.379,0.7893204521791766,0.754172502355784,74.6604525525049,75.72974163635668
184,455.472,0.7873043734593915,0.7587383588458066,74.58155672667995,75.72974163635668
185,455.568,0.7852232599421941,0.7634515010290557,74.50011587421548,75.72974163635668
186,455.664,0.7831421464249967,0.7681646432123048,74.41867502175101,75.72974163635668
187,455.766,0.7809309633129744,0.773172356782007,74.33214411600751,75.72974163635668
188,455.862,0.778849849795777,0.777885498965256,74.25070326354304,75.72974163635668
189,455.955,0.776833771075992,0.7824513554552787,74.17180743771809,75.72974163635668
190,456.048,0.774817692356207,0.7870172119453012,74.09291161189313,75.72974163635668
191,456.141,0.7728016136364221,0.7915830684353237,74.01401578606817,75.72974163635668
192,456.234,0.770785534916637,0.7961489249253462,73.93511996024321,75.72974163635668
193,456.327,0.768769456196852,0.8007147814153687,83.85622413441826,75.72974163635668
194,456.417,0.7667006551173097,0.8050807491835054,83.77986586825034,75.72974163635668
195,456.513,0.7646016291530588,0.8098138849143419,83.69826161135533,75.72974163635668
196,456.606,0.7626138789411485,0.8144155354796088,83.61922841658604,75.72974163635668
197,456.807,0.7584623950634393,0.8244080346825384,83.4484988782459,75.72974163635668
198,456.894,0.7566201196930183,0.8287274116374534,83.37452219586768,75.72974163635668
199,456.984,0.7548378978821754,0.8332458537016944,83.29799811182777,75.72974163635668
200,457.068,0.7532843867527832,0.837492372900727,83.22665018639746,75.72974163635668
201,457.155,0.7515759845287938,0.8418387712622426,83.15283830798883,75.72974163635668
202,457.245,0.7496825206184985,0.8462935096070007,83.07642162062513,75.72974163635668
203,457.329,0.747878184304669,0.8504374101681359,83.00508698917143,75.72974163635668
204,457.419,0.7460664997311756,0.8549276059520897,82.92866094218162,75.72974163635668
205,457.509,0.7442999061641744,0.8594131509635317,82.85236941016842,75.72974163635668
206,457.602,0.7423487283831685,0.8639812265445459,82.77362603134989,75.72974163635668
207,457.692,0.7405546029933735,0.8684426556850807,82.69741274580149,75.72974163635668
208,457.782,0.7386582800952193,0.8728605123789581,82.62120594096663,75.72974163635668
209,457.869,0.7369361463228133,0.8771782955765408,82.54753198501973,75.72974163635668
210,457.959,0.7352004006603688,0.8816604049084106,82.47133275653383,75.72974163635668
211,458.049,0.7334172587710246,0.8861052450192132,82.39524419059819,75.72974163635668
212,458.136,0.7316776944846504,0.8903925883095839,82.3217093387299,75.72974163635668
213,458.223,0.7299317426093895,0.8946651739768869,82.24824654470837,75.72974163635668
214,458.31,0.7282656975342481,0.8989538398873991,82.17487747844899,75.72974163635668
215,458.4,0.7266337839557271,0.9034433354674289,82.09886751441033,75.72974163635668
216,458.487,0.7251184730374824,0.9077979323362726,82.0254356964107,75.72974163635668
217,458.574,0.7236574566759881,0.9121805969774327,81.95194588826011,75.72974163635668
218,458.664,0.7220223493470276,0.9166742113759977,81.87590416518916,75.72974163635668
219,458.754,0.7204654651582157,0.9212027027936809,81.79981899089665,75.72974163635668
220,458.844,0.7189252331274842,0.9257286551571005,81.72378368397268,75.72974163635668
221,458.931,0.7173904311779608,0.9301038467664806,81.65018629107912,75.72974163635668
222,459.018,0.7157172582393898,0.9344407492032862,81.57651286247072,75.72974163635668
223,459.108,0.7139792764454808,0.938909539619156,81.50038792278065,75.72974163635668
224,459.195,0.7122122398528367,0.9431735721325423,81.42692439707886,75.72974163635668
225,459.279,0.7105354132480549,0.9473046408087276,81.35598187746709,75.72974163635668
226,459.366,0.7088808962263097,0.9516107041972702,81.28253553866864,75.72974163635668
227,459.453,0.707165458926645,0.9558952191297185,81.2090752010697,75.72974163635668
228,459.543,0.7054027883795893,0.9603416175234676,81.13302590377305,75.72974163635668
229,459.63,0.7037385290959587,0.9646580178220555,81.05949542734872,75.72974163635668
230,459.72,0.7020530781323476,0.9691501367399157,80.98335100041535,75.72974163635668
231,459.813,0.700209799546558,0.9737376854728984,80.90475686783569,75.72974163635668
232,459.918,0.6979803247815372,0.9788367698591586,80.81612890193792,75.72974163635668
233,460.008,0.6959501970854401,0.983170114730393,80.74006500311617,75.72974163635668
