,t,x,y,energy,sight
0,452.655,0.08429406291939387,0.29692645499004,49.88170822081717,109.00093164944677
1,452.769,0.0874184167546927,0.30335847544396605,49.75310304908966,109.00093164944677
2,452.871,0.09022726215248944,0.3091015549333421,49.63806615167321,109.00093164944677
3,452.97,0.09308839704324255,0.31462195002588705,49.5263317104508,109.00093164944677
4,453.072,0.09608405755994076,0.32031128640880846,49.41106025621359,109.00093164944677
5,453.174,0.09913028469701037,0.32594458920583413,49.29595283136707,109.00093164944677
6,453.279,0.1023650618337852,0.33171874731752254,49.177293710182546,109.00093164944677
7,453.381,0.10554862181512134,0.3373169471586578,49.06195643288158,109.00093164944677
8,453.483,0.10865322636133437,0.34294987961444556,48.946672057363685,109.00093164944677
9,453.594,0.11198782972099805,0.3490968319049296,48.82125499969167,109.00093164944677
10,453.696,0.11488274729089672,0.3548315882861508,48.70602066530418,109.00093164944677
11,453.801,0.11789409844300817,0.3606889610953975,48.58756880854731,109.00093164944677
12,453.9,0.12059526009789816,0.3662707788398796,48.475941503322844,109.00093164944677
13,453.999,0.12334682580090513,0.37184635249488474,48.36420846169245,109.00093164944677
14,454.101,0.1260216630042475,0.3776890823313092,48.248962040684155,109.00093164944677
15,454.2,0.128803214157456,0.38329402170500243,48.136975437665114,109.00093164944677
16,454.302,0.13157217214534805,0.3891000793960904,48.021686616098364,109.00093164944677
17,454.407,0.13460503302719207,0.39498112751329245,47.903037027043034,109.00093164944677
18,454.506,0.13737882070417495,0.40058394579856377,47.79108465282577,109.00093164944677
19,454.605,0.14029083901444275,0.40609470131110303,47.67925387092554,109.00093164944677
20,454.701,0.14320221054815632,0.4114070736228008,47.57072312068709,109.00093164944677
21,454.8,0.14629851212578776,0.41680899417011996,47.458933662926114,109.00093164944677
22,454.896,0.14926499012252153,0.42205492790815347,47.35060287715127,109.00093164944677
23,454.995,0.1522154289280906,0.427524286348291,47.238889997457356,109.00093164944677
24,455.091,0.1549469992815356,0.43288280352633784,47.13063608368613,109.00093164944677
25,455.187,0.15760145110077386,0.4382969607314533,47.022284382855865,109.00093164944677
26,455.283,0.16015376325968483,0.4437792123664896,46.91382130839807,109.00093164944677
27,455.379,0.16257660526547946,0.4493057040484888,46.80544145877576,109.00093164944677
28,455.472,0.1649296463316133,0.4546347570739625,46.70057814358785,109.00093164944677
29,455.568,0.16749100251587642,0.4600775502082418,46.592319250420395,109.00093164944677
30,455.664,0.16997583694566215,0.46556511383775145,46.484005489369665,109.00093164944677
31,455.766,0.1727400648414968,0.47131755274658554,46.36903926099023,109.00093164944677
32,455.862,0.17534401405992542,0.47675607655130686,46.260688154537576,109.00093164944677
33,455.955,0.1777430925240566,0.48209421776455386,46.15565181047621,109.00093164944677
34,456.048,0.1801882347148898,0.48740339095867363,46.050662129519374,109.00093164944677
35,456.141,0.18259838223415814,0.49272367587591664,45.9457008164897,109.00093164944677
36,456.234,0.18507300257676537,0.49801471569096956,45.84073698030363,109.00093164944677
37,456.327,0.18743854902850288,0.5033289845076856,45.73592772696702,109.00093164944677
38,456.417,0.18965022351759273,0.5085260735784984,45.63437921169311,109.00093164944677
39,456.513,0.19188241610530268,0.5141428439139882,45.5259365618331,109.00093164944677
40,456.606,0.19418418730102996,0.5195141829648635,45.420955973382085,109.00093164944677
41,456.807,0.19534462827998295,0.5320908036419076,45.194062443504095,109.00093164944677
42,456.894,0.19584690870370888,0.5375344155767475,45.09585479624347,109.00093164944677
43,456.984,0.19636650914204606,0.5431657382679613,44.994260678387654,109.00093164944677
44,457.068,0.19685146955116076,0.5484216394464275,44.89943950172223,109.00093164944677
45,457.155,0.1973537499748867,0.5538652513812675,44.801231854461605,109.00093164944677
46,457.245,0.19787335041322385,0.5594965740724813,44.69963773660579,109.00093164944677
47,457.329,0.19835831082233854,0.5647524752509475,44.60481655994036,109.00093164944677
48,457.419,0.19887791126067572,0.5703837979421613,44.50322244208454,109.00093164944677
49,457.509,0.19939751169901287,0.5760151206333751,44.401628324228724,109.00093164944677
50,457.602,0.20499557489143258,0.5743384804422151,44.29664773577771,109.00093164944677
51,457.692,0.21040074360921399,0.5727384876824871,44.195170344601365,109.00093164944677
52,457.782,0.21579734135173262,0.571116675759738,44.09370560610133,109.00093164944677
53,457.869,0.22101219657769913,0.5695785520043692,43.995688518405714,109.00093164944677
54,457.959,0.22644640154976772,0.5681279433757991,43.894291245427425,109.00093164944677
55,458.049,0.23190895418690363,0.5668377217766293,43.79296840768901,109.00093164944677
56,458.136,0.2371922193921227,0.565523864887662,43.69490510635043,109.00093164944677
57,458.223,0.2425046466228385,0.5643018918991152,43.596797167987035,109.00093164944677
58,458.31,0.2478002971174123,0.5629906034543408,43.498660893100954,109.00093164944677
59,458.4,0.2532589193821977,0.5616034876252636,43.39721483903112,109.00093164944677
60,458.487,0.258559211836261,0.5603249612920791,43.29909948805989,109.00093164944677
61,458.574,0.26385597182213844,0.5590757265820474,43.2010496245414,109.00093164944677
62,458.664,0.2693728115134145,0.5578766905025982,43.09951699410055,109.00093164944677
63,458.754,0.27486834064041277,0.5565020215835605,42.99786137844663,109.00093164944677
64,458.844,0.28037004648329134,0.5551050830687132,42.89613259940624,109.00093164944677
65,458.931,0.2856716682368782,0.5536151959310034,42.79766731256624,109.00093164944677
66,459.018,0.2910134931199297,0.5522100229934596,42.69909605252061,109.00093164944677
67,459.108,0.2965707876621501,0.550861783836192,42.59709707718866,109.00093164944677
68,459.195,0.30189685729223553,0.5494576768653593,42.498625063723345,109.00093164944677
69,459.279,0.3070248720188854,0.5480074046461028,42.4034779911123,109.00093164944677
70,459.366,0.3122872877982204,0.5463498125782149,42.30494671219111,109.00093164944677
71,459.453,0.3175883638611916,0.5448428899003935,42.206455131734366,109.00093164944677
72,459.543,0.3230952752459205,0.5434080840793296,42.10463371359983,109.00093164944677
73,459.63,0.3284160657297989,0.5419701251305149,42.00613846717362,109.00093164944677
74,459.72,0.3229323234664872,0.5404086189463442,41.90424683293961,109.00093164944677
75,459.813,0.31726578979439835,0.5387950625560345,41.7989588108978,109.00093164944677
76,459.918,0.3108680904872013,0.5369733053411687,41.680085237624795,109.00093164944677
77,460.008,0.30538434822388955,0.535411799156998,41.57819360339079,109.00093164944677
78,460.101,0.29971781455180074,0.5337982427666883,41.472905581348975,109.00093164944677
79,460.194,0.2940512808797119,0.5321846863763786,41.36761755930716,109.00093164944677
80,460.284,0.28856753861640017,0.5306231801922079,41.265725925073156,109.00093164944677
81,460.374,0.28308379635308845,0.5290616740080373,41.16383429083915,109.00093164944677
82,460.467,0.2774172626809996,0.5274481176177276,41.058546268797336,109.00093164944677
83,460.557,0.27193352041768787,0.5258866114335569,40.95665463456333,109.00093164944677
84,460.65,0.266266986745599,0.5242730550432472,40.85136661252152,109.00093164944677
85,460.743,0.2606004530735102,0.5226594986529375,40.746078590479705,109.00093164944677
86,460.833,0.2551167108101985,0.5210979924687668,40.6441869562457,109.00093164944677
87,460.923,0.2496329685468867,0.5195364862845961,40.54229532201169,109.00093164944677
88,461.013,0.244149226283575,0.5179749801004254,40.44040368777768,109.00093164944677
89,461.103,0.23866548402026325,0.5164134739162548,40.338512053543674,109.00093164944677
90,461.193,0.2331817417569515,0.5148519677320842,40.236620419309666,109.00093164944677
91,461.283,0.22768851768063403,0.5132759740001526,40.13464495668178,109.00093164944677
92,461.373,0.2221670940369819,0.5118486618047593,40.032745685772085,109.00093164944677
93,461.463,0.21668912473937446,0.5103392174774684,39.9309795125415,109.00093164944677
94,461.553,0.21122232771346727,0.5088666901453591,39.82934443552194,109.00093164944677
95,461.646,0.20554294252911479,0.5074642276220103,39.724323957891684,109.00093164944677
96,461.739,0.20623375210994466,0.5132732808430329,39.61930348026143,109.00093164944677
97,461.829,0.20690227751074777,0.5188949452504743,39.51767075997408,109.00093164944677
98,461.922,0.2075930870915777,0.524703998471497,39.412650282343826,109.00093164944677
99,462.012,0.2082616124923808,0.5303256628789383,39.31101756205648,109.00093164944677
100,462.105,0.20895242207321071,0.536134716099961,39.20599708442622,109.00093164944677
101,462.195,0.20962094747401383,0.5417563805074024,39.104364364138874,109.00093164944677
102,462.288,0.21031175705484376,0.547565433728425,38.99934388650862,109.00093164944677
103,462.381,0.21094968695358202,0.5533566654832707,38.894475237083256,109.00093164944677
104,462.474,0.21167490068456596,0.5591357977467989,38.7896181317322,109.00093164944677
105,462.567,0.21235046922452305,0.5649436554952612,38.68461664712639,109.00093164944677
106,462.666,0.21296427583461397,0.5711313170507033,38.57288063148983,109.00093164944677
107,462.762,0.2135170002672258,0.5771120235322088,38.46468040005386,109.00093164944677
108,462.855,0.21423142288646074,0.582907432204086,38.359728446633454,109.00093164944677
109,462.948,0.21478974157188985,0.5887365649262366,38.25467068649126,109.00093164944677
110,463.044,0.21539666618784797,0.5947451285593283,38.14625960351759,109.00093164944677
111,463.137,0.21606227491252444,0.6005402334377294,38.04134651666308,109.00093164944677
112,463.23,0.21672345017413197,0.6063460933829267,37.936368267279676,109.00093164944677
113,463.323,0.2173779178331865,0.6121642724326002,37.831316503809916,109.00093164944677
114,463.416,0.21800365646260364,0.6179774685699224,37.72631655509728,109.00093164944677
115,463.509,0.21866048552001094,0.6237688208203933,37.62143370207652,109.00093164944677
116,463.602,0.21915069626317737,0.6295530322439029,37.51670146437503,109.00093164944677
117,463.695,0.21971537042273762,0.6353417983295512,37.41189693866857,109.00093164944677
118,463.788,0.22032359675249533,0.6411470285102097,37.30695952392075,109.00093164944677
119,463.878,0.22088681034866714,0.6467667413298821,37.20541262741701,109.00093164944677
120,463.968,0.22142204475705435,0.6523822638332073,37.10390984549864,109.00093164944677
121,464.058,0.22183032049139592,0.6580076656201953,37.00241201882042,109.00093164944677
122,464.145,0.22220560248727841,0.6634619346382393,36.904201625998795,109.00093164944677
123,464.235,0.2225580980087427,0.6691206785981187,36.802514909005154,109.00093164944677
124,464.322,0.22283440932457035,0.6745792963365307,36.70431448637839,109.00093164944677
125,464.409,0.22320371395928648,0.6800152406681998,36.60622370786319,109.00093164944677
126,464.499,0.2234352508122157,0.6856647091840726,36.50463619745844,109.00093164944677
127,464.589,0.22357186573430732,0.691314982878487,36.403063318325465,109.00093164944677
128,464.676,0.2237486014853149,0.6967742633964266,36.30488507850076,109.00093164944677
129,464.769,0.22403360244239784,0.7026299353542257,36.1997838385738,109.00093164944677
130,464.859,0.22433740614421577,0.7082869028589828,36.09812651529825,109.00093164944677
131,464.952,0.22451668870854175,0.7141428397560733,35.99305038139439,109.00093164944677
132,465.042,0.2246258037605396,0.7197961232153197,35.89146206953482,109.00093164944677
133,465.129,0.22477932976344692,0.7252407024262736,35.793382371798565,109.00093164944677
134,465.219,0.2248866400796031,0.7308557483388765,35.69203895691174,109.00093164944677
135,465.309,0.22504912900677082,0.7364694765417756,35.590695490240485,109.00093164944677
136,465.399,0.22510485187642315,0.7420909011515509,35.489316046246444,109.00093164944677
137,465.489,0.22511289180209326,0.747710549435973,35.38794970142826,109.00093164944677
138,465.579,0.22524659527791088,0.7533428846935348,35.2864920416551,109.00093164944677
139,465.666,0.22528860267293194,0.7588007343915155,35.18834022862896,109.00093164944677
140,465.753,0.2253090921342932,0.7642512501217659,35.090236141124215,109.00093164944677
141,465.843,0.22550483024973014,0.7698710916399448,34.988846786950674,109.00093164944677
142,465.93,0.22569057147863258,0.7752841980001299,34.890961977060485,109.00093164944677
143,466.02,0.22579385482539843,0.7808718013995918,34.78979464762663,109.00093164944677
144,466.107,0.22591624358684234,0.7862547374797295,34.692114412919466,109.00093164944677
145,466.194,0.229217496536053,0.7820011849859775,34.5944341782123,109.00093164944677
146,466.281,0.23251874948526363,0.7777476324922254,34.49675394350514,109.00093164944677
147,466.371,0.23593383874306775,0.7733474057745509,34.39570542484256,109.00093164944677
148,466.458,0.23923509169227838,0.7690938532807989,34.2980251901354,109.00093164944677
149,466.545,0.24253634464148904,0.7648403007870469,34.200344955428235,109.00093164944677
150,466.632,0.24583759759069967,0.7605867482932949,34.10266472072107,109.00093164944677
151,466.725,0.24936652315709726,0.7560398473516978,33.99824791810307,109.00093164944677
152,466.815,0.25281731317764017,0.7516449038465612,33.89708545552675,109.00093164944677
153,466.902,0.2561749566518919,0.7474114763927349,33.799283779288224,109.00093164944677
154,467.022,0.2608163400831341,0.7416193410926712,33.6645799974317,109.00093164944677
155,467.106,0.26399003811203253,0.7374904438777634,33.570210188272924,109.00093164944677
156,467.19,0.2672754115433393,0.7334774100930286,33.47597709292781,109.00093164944677
157,467.274,0.27053715325257366,0.7294615736363106,33.381825676888774,109.00093164944677
158,467.355,0.27369569964075235,0.7256175073255745,33.29112347826928,109.00093164944677
159,467.439,0.2770878021792108,0.7217431918603159,33.19712657308217,109.00093164944677
160,467.526,0.2806443672540581,0.7177862640070569,33.09985560684649,109.00093164944677
161,467.61,0.28414044187181603,0.71403758548869,33.0060091518498,109.00093164944677
162,467.697,0.2877797481327418,0.7101546824541443,32.90872913310524,109.00093164944677
163,467.892,0.2959017943133585,0.70144309772676,32.69080090133299,109.00093164944677
164,467.973,0.2992676931970976,0.6977920236196109,32.60015898968332,109.00093164944677
165,468.051,0.30260767425740015,0.6943773034851823,32.51290834593943,109.00093164944677
166,468.132,0.30598463748502136,0.6907694753232934,32.422421023850355,109.00093164944677
167,468.213,0.30927592219059585,0.6870571543433223,32.331808597831305,109.00093164944677
168,468.291,0.31246954389777293,0.6834818668406918,32.24444687093261,109.00093164944677
169,468.372,0.3158207387509999,0.6797922325991729,32.15368642328571,109.00093164944677
170,468.453,0.31906957553334253,0.6760191236414473,32.06295977349061,109.00093164944677
171,468.531,0.3222371315248404,0.6724414014259278,31.975697260726225,109.00093164944677
172,468.615,0.3256506240199878,0.6685770256538311,31.88165772139938,109.00093164944677
173,468.696,0.3290308126882787,0.6649301547734314,31.79097348447672,109.00093164944677
174,468.78,0.33264574852056816,0.6612318351579685,31.696834795464262,109.00093164944677
175,468.864,0.33633628104011726,0.6575855488098094,31.602591017974625,109.00093164944677
176,468.951,0.34026299841194196,0.6539207646452011,31.504994819750003,109.00093164944677
177,469.038,0.3441283851810403,0.6502113186500003,31.407487236141847,109.00093164944677
178,469.128,0.34799416724820514,0.6462726998016864,31.30676645225524,109.00093164944677
179,469.218,0.3518511254857763,0.6423438950754231,31.206130052066225,109.00093164944677
180,469.305,0.3554757875475408,0.6384550273187894,31.108886141676376,109.00093164944677
181,469.392,0.35917101869036927,0.6346220069661188,31.011590918107512,109.00093164944677
182,469.563,0.36628058467193514,0.6269208048968469,30.820250515434026,109.00093164944677
183,469.647,0.36980277857896887,0.6231852323707363,30.726350900317502,109.00093164944677
184,469.731,0.3732819677934791,0.6194088623443569,30.632447934593102,109.00093164944677
185,469.812,0.3766485126987727,0.615784939790976,30.541930752071487,109.00093164944677
186,469.896,0.3801528238646107,0.6120505574207423,30.448115100852068,109.00093164944677
187,469.98,0.3836401561915541,0.6083247244989457,30.354413680582894,109.00093164944677
188,470.061,0.38701750433725657,0.6047324136452048,30.263997102936827,109.00093164944677
189,470.145,0.3905274731401157,0.601011003530109,30.17021710973079,109.00093164944677
190,470.232,0.39418928656648705,0.5971550594780416,30.07296374141481,109.00093164944677
191,470.316,0.3977057719464182,0.5933935177951282,29.97896796394895,109.00093164944677
192,470.397,0.40116178382375967,0.5898193750533889,29.88828812159353,109.00093164944677
193,470.475,0.4044663242103545,0.586343324505848,29.800912370708883,109.00093164944677
194,470.556,0.40800993860396567,0.5828302405554218,29.710116597525776,109.00093164944677
195,470.637,0.41155955706552927,0.5793182022928829,29.6192982316306,109.00093164944677
196,470.715,0.4150620179171116,0.576020463143713,29.53182961239006,109.00093164944677
197,470.796,0.418749359482265,0.5726770498371841,29.441113498826518,109.00093164944677
198,470.877,0.4223817813988493,0.5692833442527326,29.350438025667124,109.00093164944677
199,470.955,0.42588774652992195,0.5660036512552822,29.263032089921197,109.00093164944677
200,471.033,0.4294100146698299,0.5627268517603924,29.175562491357475,109.00093164944677
201,471.111,0.4329185733589518,0.5594506095300397,29.088159508850023,109.00093164944677
202,471.189,0.4364927502259567,0.5562184788508485,29.000638322182343,109.00093164944677
203,471.267,0.44002983766499304,0.5529707150023218,28.91322520194519,109.00093164944677
204,471.345,0.44355821509721816,0.5497357311093242,28.825908452880707,109.00093164944677
205,471.423,0.4470579055092663,0.5464951877352734,28.738702615521888,109.00093164944677
206,471.501,0.4506194313652225,0.5433517206536251,28.651619873149844,109.00093164944677
207,471.579,0.45410028158250526,0.5400916784781441,28.564417230276725,109.00093164944677
208,471.657,0.4576283999368987,0.5368635181048017,28.4771312000189,109.00093164944677
209,471.738,0.4612515296432463,0.5334645786656612,28.386476247867847,109.00093164944677
210,471.819,0.4648284586831193,0.5299938828641222,28.29571821238357,109.00093164944677
211,471.897,0.4682375559820149,0.5265993247112483,28.208247827819946,109.00093164944677
212,471.978,0.4718233100408309,0.5230948707534022,28.117298596723238,109.00093164944677
213,472.056,0.4752464096420533,0.5196636722259915,28.0295990782151,109.00093164944677
214,472.188,0.48115856060657886,0.5139690436290962,27.88114274669495,109.00093164944677
215,472.263,0.48461344958094354,0.5108383067250846,27.796803059767377,109.00093164944677
216,472.338,0.4881541893789936,0.507807700839388,27.712474604268284,109.00093164944677
217,472.41,0.49149909217094423,0.5048183346103966,27.631443408161232,109.00093164944677
218,472.485,0.4950798513424954,0.5018094075718641,27.54700935608702,109.00093164944677
219,472.557,0.49845692361290767,0.4988648489015756,27.466013592742513,109.00093164944677
220,472.632,0.5019384237229867,0.4957747682941423,27.381720840825473,109.00093164944677
221,472.704,0.5053026525011697,0.4928518163310319,27.300877866499263,109.00093164944677
222,472.779,0.5088172557715065,0.4898379505892964,27.216746145145528,109.00093164944677
223,472.854,0.5122980201552302,0.4867966021416431,27.132663053622032,109.00093164944677
224,472.926,0.5156036901224288,0.4838396908538393,27.051957485697713,109.00093164944677
225,473.001,0.5191432622967758,0.48086579546691405,26.967869476582894,109.00093164944677
226,473.076,0.5226472797915851,0.4778263206766618,26.883682015154697,109.00093164944677
227,473.148,0.5260190113353731,0.4749434362466152,26.80297008575428,109.00093164944677
