,t,x,y,energy,sight
0,721.622,0.8522048851340613,0.3703116678784053,49.93911176958479,99.10305150730383
1,721.678,0.8518110064700315,0.36660513980943177,49.87825795421963,99.10305150730383
2,721.736,0.8513006815703335,0.3627712142180307,49.81518456813208,99.10305150730383
3,721.792,0.8545733667063956,0.3609725890012007,49.75428612639238,99.10305150730383
4,721.846,0.8577291702304557,0.3592382003992575,49.69556262900053,99.10305150730383
5,721.902,0.8610018553665177,0.3574395751824275,49.634664187260825,99.10305150730383
6,721.958,0.8642745405025801,0.35564094996559753,49.57376574552112,99.10305150730383
7,722.014,0.8675472256386424,0.35384232474876753,49.51286730378142,99.10305150730383
8,722.07,0.8708199107747046,0.3520436995319375,49.45196886204172,99.10305150730383
9,722.126,0.8740925959107668,0.3502450743151075,49.391070420302015,99.10305150730383
10,722.18,0.8772483994348269,0.3485106857131643,49.33234692291016,99.10305150730383
11,722.236,0.8805210845708891,0.3467120604963343,49.27144848117046,99.10305150730383
12,722.292,0.8837937697069513,0.3449134352795043,49.21055003943076,99.10305150730383
13,722.346,0.8869495732310113,0.3431790466775611,49.151826542038904,99.10305150730383
14,722.4,0.8901053767550714,0.3414446580756179,49.09310304464705,99.10305150730383
15,722.456,0.8933780618911336,0.3396460328587879,49.03220460290735,99.10305150730383
16,722.51,0.8965338654151935,0.3379116442568447,48.973481105515496,99.10305150730383
17,722.566,0.8998065505512557,0.33611301904001467,48.912582663775794,99.10305150730383
18,722.62,0.9029623540753157,0.3343786304380715,48.85385916638394,99.10305150730383
19,722.676,0.906235039211378,0.3325800052212415,48.79296072464424,99.10305150730383
20,722.732,0.9095077243474401,0.3307813800044115,48.732062282904536,99.10305150730383
21,722.786,0.9126635278715002,0.3290469914024683,48.673338785512684,99.10305150730383
22,722.842,0.9159362130075624,0.3272483661856383,48.61244034377298,99.10305150730383
23,722.898,0.9192088981436246,0.3254497409688083,48.55154190203328,99.10305150730383
24,722.954,0.9224815832796869,0.32365111575197825,48.490643460293576,99.10305150730383
25,723.008,0.925637386803747,0.32191672715003505,48.43191996290172,99.10305150730383
26,723.064,0.9289100719398091,0.32011810193320506,48.37102152116202,99.10305150730383
27,723.116,0.9319489938518668,0.31844794994614867,48.31447296811801,99.10305150730383
28,723.172,0.9352216789879291,0.3166493247293186,48.25357452637831,99.10305150730383
29,723.226,0.9383774825119892,0.3149149361273754,48.194851028986456,99.10305150730383
30,723.282,0.9416501676480513,0.3131163109105454,48.13395258724675,99.10305150730383
31,723.336,0.9448059711721113,0.31138192230860223,48.0752290898549,99.10305150730383
32,723.392,0.9480786563081736,0.30958329709177224,48.0143306481152,99.10305150730383
33,723.446,0.9512344598322336,0.30784890848982904,47.955607150723345,99.10305150730383
34,723.502,0.9545071449682958,0.30605028327299905,47.89470870898364,99.10305150730383
35,723.556,0.9576629484923558,0.30431589467105585,47.83598521159179,99.10305150730383
36,723.612,0.960935633628418,0.30251726945422586,47.77508676985209,99.10305150730383
37,723.668,0.9641927845900794,0.3006774797297061,47.71414694292139,99.10305150730383
38,723.722,0.9673527951545392,0.2989173337579485,47.655320078639974,99.10305150730383
39,723.776,0.9704586851089834,0.2970611264372891,47.5964858926993,99.10305150730383
40,723.83,0.973540242718947,0.2951388806297603,47.53756434460153,99.10305150730383
41,723.882,0.9765482781698142,0.29333802099767714,47.48077082550586,99.10305150730383
42,723.936,0.9796998761343291,0.291524741111152,47.421823276202616,99.10305150730383
43,723.99,0.9828998667400469,0.2898070103404865,47.36290215751697,99.10305150730383
44,724.044,0.9861170754323512,0.2880918381679278,47.3038915969185,99.10305150730383
45,724.1,0.9792657953985995,0.28635938070484723,47.24265835352764,99.10305150730383
46,724.152,0.9761382637412254,0.28473040786198967,47.18573411380927,99.10305150730383
47,724.208,0.9727665457513368,0.2829646366499582,47.12437657352972,99.10305150730383
48,724.264,0.9694079857944973,0.28117310639500254,47.06301644767875,99.10305150730383
49,724.32,0.9660845115517525,0.27931651907782773,47.001653890853575,99.10305150730383
50,724.376,0.9627497778608364,0.277489282331361,46.94031921912419,99.10305150730383
51,724.43,0.9595284716367827,0.2757640938891224,46.881255318247625,99.10305150730383
52,724.486,0.9561693825608334,0.27400860149769374,46.819999889117774,99.10305150730383
53,724.54,0.9529204603285681,0.2723620228259212,46.76101174752556,99.10305150730383
54,724.594,0.9496330684521025,0.27081229241685,46.70207471233399,99.10305150730383
55,724.648,0.9463273275141615,0.26928283609908377,46.64308618173636,99.10305150730383
56,724.704,0.9429549711878117,0.2676114471321699,46.581999271989716,99.10305150730383
57,724.76,0.9395671899026115,0.26597709058997737,46.52092779401129,99.10305150730383
58,724.85,0.9340495669628464,0.263479694001137,46.42270438404184,99.10305150730383
59,724.902,0.9308242164210944,0.2621210577338478,46.3659497762338,99.10305150730383
60,724.956,0.9274752227422578,0.2606795257162965,46.30693787640574,99.10305150730383
61,725.006,0.924408680515791,0.2592726859406176,46.25231087114639,99.10305150730383
62,725.06,0.9211023791461145,0.2577412398494268,46.19331373588132,99.10305150730383
63,725.112,0.9179502893124474,0.25620423853063884,46.13651412897233,99.10305150730383
64,725.166,0.9147235037045078,0.25451411092747894,46.077524265759024,99.10305150730383
65,725.222,0.9114175560211123,0.25267908766588804,46.01632685200717,99.10305150730383
66,725.28,0.9080022711304394,0.2507915533732786,45.953033096200194,99.10305150730383
67,725.334,0.9048468507594828,0.24899397415613636,45.89411424212183,99.10305150730383
68,725.39,0.9015454885754173,0.24715776189783165,45.83293878566665,99.10305150730383
69,725.444,0.9014631963772068,0.2435159540095419,45.77394816694201,99.10305150730383
70,725.498,0.9013809041789964,0.23987414612125219,45.71495754821738,99.10305150730383
71,725.55,0.901301659839979,0.2363672200066028,45.65815176722328,99.10305150730383
72,725.604,0.9012193676417686,0.23272541211831305,45.599161148498645,99.10305150730383
73,725.658,0.9011370754435581,0.22908360423002333,45.54017052977401,99.10305150730383
74,725.712,0.9010547832453477,0.22544179634173359,45.481179911049374,99.10305150730383
75,725.764,0.9009755389063304,0.2219348702270842,45.42437413005528,99.10305150730383
76,725.818,0.90089324670812,0.21829306233879447,45.36538351133064,99.10305150730383
77,725.872,0.9008109545099096,0.21465125445050473,45.306392892606006,99.10305150730383
78,725.926,0.9007286623116991,0.211009446562215,45.24740227388137,99.10305150730383
79,725.978,0.9006494179726818,0.20750252044756562,45.19059649288727,99.10305150730383
80,726.03,0.9005701736336645,0.20399559433291622,45.13379071189318,99.10305150730383
81,726.084,0.9004878814354541,0.20035378644462648,45.07480009316854,99.10305150730383
82,726.136,0.9004086370964368,0.19684686032997714,45.017994312174444,99.10305150730383
83,726.19,0.9003263448982264,0.19320505244168742,44.95900369344981,99.10305150730383
84,726.242,0.9001826304441236,0.18970625201385097,44.90223676416107,99.10305150730383
85,726.296,0.8999212039557374,0.18608170854215308,44.84330232698518,99.10305150730383
86,726.348,0.8996173484886016,0.18259619529132604,44.786554712944344,99.10305150730383
87,726.402,0.899340000452544,0.17897589474743064,44.727639798745074,99.10305150730383
88,726.454,0.8990744760435758,0.17548691472317715,44.6708900317495,99.10305150730383
89,726.506,0.8989016409090237,0.1719888573203185,44.61411942981103,99.10305150730383
90,726.558,0.8987873854616432,0.16849603578103892,44.557397690738554,99.10305150730383
91,726.612,0.8987526166757824,0.16487112262929515,44.498520080884674,99.10305150730383
92,726.664,0.8987554527262025,0.16138348728739366,44.441843482794134,99.10305150730383
93,726.716,0.8987224704438356,0.1579048956649429,44.38522377120109,99.10305150730383
94,726.768,0.8986840096976362,0.15441602736812704,44.32853793286708,99.10305150730383
95,726.822,0.8986170864814536,0.15080213695122927,44.269727970216344,99.10305150730383
96,726.876,0.8985292101260007,0.14718947226636286,44.2109229785399,99.10305150730383
97,726.928,0.8985401064049119,0.14371574148132735,44.154335267620375,99.10305150730383
98,726.984,0.8985517347238492,0.1399734901419445,44.0933862708611,99.10305150730383
99,727.044,0.8984435849150483,0.13596037970970193,44.02805181864839,99.10305150730383
100,727.096,0.8982894070640748,0.13247992065457917,43.97139931155153,99.10305150730383
101,727.152,0.8981801226625248,0.12873951640226192,43.91045203637957,99.10305150730383
102,727.204,0.8980853350211346,0.12527515482751567,43.853916100246536,99.10305150730383
103,727.258,0.8979234359375503,0.12168908878138059,43.79526480143968,99.10305150730383
104,727.312,0.8976741755233218,0.11811369999871288,43.73664967459629,99.10305150730383
105,727.366,0.8974541329086112,0.11453702458150905,43.67803857473568,99.10305150730383
106,727.422,0.897287254020888,0.11082306357414695,43.617246769118815,99.10305150730383
107,727.476,0.8972247076355322,0.10723554915282044,43.55860608906448,99.10305150730383
108,727.532,0.8972220269070844,0.1035034238704255,43.49772200853275,99.10305150730383
109,727.588,0.8972057218740064,0.09976101958711905,43.43677192123532,99.10305150730383
110,727.644,0.8971552615979619,0.09602271379656832,43.375846112124385,99.10305150730383
111,727.698,0.8971468645869626,0.09240621593899731,43.317023364903925,99.10305150730383
112,727.754,0.8971954690416653,0.08864822074040865,43.25597171153452,99.10305150730383
113,727.812,0.8972003521202376,0.08475605606629896,43.19274199143334,99.10305150730383
114,727.866,0.8971964833499341,0.08112301307276376,43.13381340454875,99.10305150730383
115,727.92,0.8971993364571681,0.07747827571933619,43.074809979797244,99.10305150730383
116,727.978,0.897093404833923,0.07356520759365656,43.01143732224801,99.10305150730383
117,728.032,0.897040939386614,0.06992886204086174,42.95248518997311,99.10305150730383
118,728.088,0.8968781454283651,0.06615150975777201,42.89128922204012,99.10305150730383
119,728.144,0.896823626843617,0.06236921051577464,42.83008151977625,99.10305150730383
120,728.198,0.8967047742783564,0.058734293520585124,42.771128520018806,99.10305150730383
121,728.254,0.8965524714751536,0.054980118573454764,42.71008356389296,99.10305150730383
122,728.314,0.8964303004166551,0.050945096951102976,42.644606370642094,99.10305150730383
123,728.37,0.8963655218357924,0.04718052512452845,42.583511071701416,99.10305150730383
124,728.428,0.8963626218781338,0.04327890224778219,42.52022083180997,99.10305150730383
125,728.486,0.8964254583299034,0.03936468928605972,42.45684679451494,99.10305150730383
126,728.542,0.8965646910243225,0.03560069600373732,42.39574228957797,99.10305150730383
127,728.6,0.8967728814340603,0.03171672685882475,42.33252935560534,99.10305150730383
128,728.656,0.897035904775741,0.027980442982180755,42.27155948804876,99.10305150730383
129,728.712,0.8974097100445064,0.024255111351573606,42.210599167507006,99.10305150730383
130,728.766,0.8976915282465237,0.020646374913701946,42.15175583683116,99.10305150730383
131,728.824,0.8979922396406744,0.01678320602181533,42.08863691828237,99.10305150730383
132,728.878,0.8983027909753332,0.013199679738594516,42.02993929218706,99.10305150730383
133,728.934,0.898614491497705,0.021754612765580293,41.969149565150246,99.10305150730383
134,728.988,0.8989211082201953,0.02532254530374259,41.91055353455112,99.10305150730383
135,729.146,0.9000824920286915,0.035742024218454134,41.73906735729392,99.10305150730383
136,729.2,0.9004938915511322,0.0393097342063552,41.680405610462635,99.10305150730383
137,729.25,0.9007789277918941,0.04263196697352857,41.62603085729572,99.10305150730383
138,729.302,0.9009943211111041,0.04609111287390896,41.56949372193123,99.10305150730383
139,729.354,0.9012015378597242,0.049563328620445476,41.51287627934857,99.10305150730383
140,729.408,0.9013378658056487,0.05318630558502575,41.45399571853653,99.10305150730383
141,729.46,0.9014418251532886,0.056663287614281146,41.397377364649444,99.10305150730383
142,729.512,0.9016095716824845,0.06014699003061602,41.34070011227795,99.10305150730383
143,729.564,0.9018043271588864,0.06362374686769447,41.284058260925526,99.10305150730383
144,729.618,0.9020587245619905,0.0672263051908598,41.225267374308444,99.10305150730383
145,729.67,0.9023273431013521,0.07068403896226134,41.16871547656289,99.10305150730383
146,729.722,0.9026987608361949,0.07412032196979848,41.112239448380016,99.10305150730383
147,729.774,0.9030510658137466,0.07754584652743476,41.055844724436284,99.10305150730383
148,729.828,0.9034307190165821,0.08109769218078151,40.997306324130186,99.10305150730383
149,729.88,0.9038890644759929,0.08450150656960517,40.94096957347636,99.10305150730383
150,729.934,0.9043050313258292,0.08804165993702087,40.88247962642432,99.10305150730383
151,729.984,0.9046731115273516,0.09132790716627259,40.82828177755343,99.10305150730383
152,730.036,0.9050098873170507,0.09475637591856315,40.77187824724439,99.10305150730383
153,730.09,0.9053096590711769,0.0983261706400307,40.71327404980374,99.10305150730383
154,730.142,0.90564198394481,0.10174978350635047,40.65690421849744,99.10305150730383
155,730.196,0.906080506393003,0.10529136782184519,40.59838788676719,99.10305150730383
156,730.25,0.9065856267884154,0.10882833282020507,40.53984453847013,99.10305150730383
157,730.302,0.9071442951255897,0.11221248813777493,40.48353707748327,99.10305150730383
158,730.356,0.9076579345859438,0.11574458528632428,40.42501678772723,99.10305150730383
159,730.408,0.9081823805059598,0.11915179387663943,40.36859812356868,99.10305150730383
160,730.46,0.9086539513571065,0.12257691340742365,40.3121148464326,99.10305150730383
161,730.514,0.9092163150833283,0.12610957351571314,40.25354404310381,99.10305150730383
162,730.566,0.9096894995933207,0.12951412474295637,40.19718974627963,99.10305150730383
163,730.62,0.9101485420582509,0.13306117941918472,40.138622184687584,99.10305150730383
164,730.672,0.9106397416346728,0.13646023815513345,40.082286510783995,99.10305150730383
165,730.722,0.9111874614090075,0.1397110115004782,40.02815396616258,99.10305150730383
166,730.776,0.9118244375729156,0.14321106026888603,39.96970862136779,99.10305150730383
167,730.826,0.9124657888882164,0.14644730133793163,39.915559519743915,99.10305150730383
168,730.88,0.9131300839508532,0.1499362693663281,39.85715188993304,99.10305150730383
169,730.932,0.9138454310696424,0.153273947261015,39.80094992198558,99.10305150730383
170,730.984,0.9145774551834187,0.15660404042310855,39.74477275031957,99.10305150730383
171,731.036,0.9154015102528545,0.1598990252781986,39.68867963335029,99.10305150730383
172,731.088,0.9162381477953557,0.16319517610778667,39.63255960556487,99.10305150730383
173,731.142,0.9171330810223042,0.16661737658258052,39.57424390437273,99.10305150730383
174,731.194,0.9180834630086118,0.16987863791937294,39.51814790509481,99.10305150730383
175,731.246,0.9190462571852226,0.17312305611105466,39.462132910632846,99.10305150730383
176,731.3,0.9200305338235332,0.17650911481893444,39.40388803441344,99.10305150730383
177,731.35,0.9208455639586026,0.17966081429962438,39.350019266859064,99.10305150730383
178,731.406,0.9216916201184565,0.18321003254763915,39.28966933398533,99.10305150730383
179,731.456,0.9223955574445863,0.18638897018335562,39.23579694097894,99.10305150730383
180,731.51,0.9232355906592696,0.18979239967039893,39.177684224514046,99.10305150730383
181,731.56,0.9239854643610694,0.1929568058191506,39.12383680553324,99.10305150730383
182,731.614,0.9248246776697464,0.19637379874404517,39.0656410547243,99.10305150730383
183,731.666,0.9256805790359433,0.19964384428138132,39.0096520379659,99.10305150730383
184,731.718,0.926566248740699,0.20289770074147717,38.95371398686502,99.10305150730383
185,731.77,0.9274961468321685,0.20614310671715042,38.89775186764348,99.10305150730383
186,731.824,0.928537336512043,0.20949001941258266,38.839641969763015,99.10305150730383
187,731.876,0.9294775859603813,0.212743242995347,38.78361344801496,99.10305150730383
188,731.928,0.9303560682358274,0.21602229440129395,38.72753171782856,99.10305150730383
189,731.98,0.9312110763397161,0.2193027714213033,38.67147955122296,99.10305150730383
190,732.032,0.9320578635926438,0.2225929872105598,38.615380238921226,99.10305150730383
191,732.086,0.9328624850581612,0.22602753699461794,38.557126875787596,99.10305150730383
192,732.138,0.9336788014314912,0.22932168988124277,38.50105089045842,99.10305150730383
193,732.192,0.9345723532530041,0.2327334149008608,38.44280228622704,99.10305150730383
194,732.244,0.935437123038047,0.2360167200513464,38.38671677610028,99.10305150730383
195,732.294,0.9362437188063224,0.23918107935735575,38.332782954840766,99.10305150730383
196,732.348,0.9370301038939386,0.24262646772527124,38.2744883047312,99.10305150730383
197,732.402,0.9377634584221871,0.24607699010377493,38.21623460992268,99.10305150730383
198,732.454,0.9384126615286574,0.24939760690161572,38.16022459100319,99.10305150730383
199,732.508,0.9391348371342876,0.2528486901618219,38.101982147709975,99.10305150730383
200,732.56,0.9397922188811932,0.2561765679018352,38.0459164373579,99.10305150730383
201,732.612,0.9405491106631416,0.25948017594047507,37.98986980016451,99.10305150730383
202,732.662,0.9412358079066863,0.2626530102597376,37.93605916216011,99.10305150730383
203,732.714,0.9420069362307334,0.2659274605870827,37.88017367798214,99.10305150730383
204,732.766,0.9427116297087104,0.26922379471381686,37.82424472055332,99.10305150730383
205,732.82,0.9435214913005829,0.2726241002738604,37.76619694067243,99.10305150730383
206,732.872,0.9442166087397738,0.2759169869561677,37.710302300727115,99.10305150730383
207,732.924,0.9449329780591567,0.27921685749108843,37.65433548045988,99.10305150730383
208,732.976,0.9455470480785472,0.28253700639113094,37.59837042276472,99.10305150730383
209,733.03,0.9462913989417843,0.28597713201683456,37.54016703107927,99.10305150730383
210,733.082,0.9469468046678118,0.2892917180562792,37.48418722537554,99.10305150730383
211,733.136,0.947587358370537,0.2927474351566238,37.426016799220434,99.10305150730383
212,733.186,0.9481963582816878,0.2959565861881727,37.37207732974229,99.10305150730383
213,733.238,0.948817540996914,0.29930427545877675,37.31593067057964,99.10305150730383
214,733.292,0.9495564851596997,0.30277466688840493,37.25754515344463,99.10305150730383
215,733.344,0.9503019947612783,0.3060973590974808,37.20139550892934,99.10305150730383
216,733.396,0.9510891922261756,0.3094239475980004,37.145161638413924,99.10305150730383
217,733.448,0.9519028354455441,0.31274645809356133,37.08891352482826,99.10305150730383
218,733.5,0.9527305387626157,0.316066609371853,37.03265848412751,99.10305150730383
219,733.556,0.9536534684527671,0.3196260740554733,36.97212611587365,99.10305150730383
220,733.606,0.95450815478897,0.32280883909240166,36.918000408295946,99.10305150730383
221,733.66,0.9555401494287743,0.3262278447109119,36.85946660565799,99.10305150730383
222,733.71,0.9564135132934686,0.32940720803307977,36.80533057527145,99.10305150730383
223,733.762,0.9573148095458397,0.33272567625120214,36.74896725584242,99.10305150730383
224,733.816,0.9582415947656606,0.336181528862686,36.690391168264675,99.10305150730383
225,733.868,0.9591946887175353,0.33950342835382646,36.63391753605286,99.10305150730383
226,733.922,0.9601038418420396,0.3429686278426044,36.575312561981576,99.10305150730383
227,733.972,0.960914708920202,0.34619495512134313,36.52098756211088,99.10305150730383
228,734.024,0.9617492593791447,0.34955650850257525,36.46446480623287,99.10305150730383
229,734.076,0.9626422984085495,0.352913514923488,36.407877015609564,99.10305150730383
230,734.128,0.9634890924485218,0.35628455904180606,36.35127634329206,99.10305150730383
231,734.18,0.9644184196494464,0.3596214218239901,36.29475193678068,99.10305150730383
