,t,x,y,energy,sight
0,0.0,0.9168105716122461,0.1745437655692093,99.99997507952722,25
1,0.798,0.9582951854185227,0.17478940470336998,99.60146889686851,25
2,0.849,0.9609385644701923,0.17474202105145245,99.57604855316777,25
3,0.903,0.9637408267509668,0.17469852875973038,99.54911191464103,25
4,0.957,0.9665525703325443,0.17471176185676118,99.52211655642465,25
5,1.011,0.9693578053839843,0.1747649378629918,99.49515982677293,25
6,1.062,0.9720183009142357,0.174879882776948,99.46961677121247,25
7,1.116,0.9748235360875226,0.17499658494320383,99.44264773684375,25
8,1.167,0.9774581861790397,0.1751617745169463,99.41725286572995,25
9,1.221,0.9802614336104917,0.17531731613687357,99.3902844860567,25
10,1.269,0.9827501771898476,0.17550424699971304,99.36631166081219,25
11,1.32,0.985392167691994,0.17569955085316125,99.34085678471543,25
12,1.377,0.980409911987133,0.1759372554264674,99.31242885890538,25
13,1.434,0.9774612893185237,0.17612590942256276,99.28401908877943,25
14,1.491,0.9744993536556888,0.17631048021442902,99.25552593174861,25
15,1.542,0.9718577006460194,0.17644791456003156,99.23009648748769,25
16,1.59,0.9693731340551228,0.1766263523244713,99.20615430564365,25
17,1.641,0.9667261686061899,0.17684037187839347,99.1806584426314,25
18,1.695,0.9639134747938203,0.1771006321654815,99.15358030393875,25
19,1.746,0.9612547761708156,0.17730223109169763,99.12801578614668,25
20,1.8,0.9584448601808342,0.17758441758175425,99.10094186763853,25
21,1.851,0.9557867162819713,0.1778665715663869,99.07533417578404,25
22,1.902,0.9531293538562476,0.17815985273833085,99.04972379175416,25
23,1.953,0.9504677660157398,0.17845835526927972,99.02408283579486,25
24,2.007,0.9476646620564809,0.1788118106344993,98.9970009130634,25
25,2.058,0.9450250558958609,0.17916325311374928,98.97145835776276,25
26,2.106,0.942539899438288,0.1795560229188538,98.94735593901756,25
27,2.154,0.9400398514039084,0.17988907860114936,98.92321427336373,25
28,2.208,0.9372153953623046,0.18025890255900132,98.89598345833934,25
29,2.262,0.9343914290911666,0.18055402360166298,98.86881164819651,25
30,2.322,0.9312649996850062,0.18094566194075107,98.83864612116206,25
31,2.379,0.9282931643432013,0.18122365147037794,98.81004334494409,25
32,2.433,0.9254890424929737,0.18155565174630178,98.78297161752366,25
33,2.49,0.922526427724855,0.18196805907557345,98.75432805666871,25
34,2.544,0.9197047497022618,0.18228874014457647,98.72715306716304,25
35,2.604,0.9165654452758037,0.18271797683981467,98.6968745821539,25
36,2.658,0.9137612760912004,0.18317826160266729,98.66968773820132,25
37,2.721,0.9104837256294802,0.1837648080289625,98.63787816597748,25
38,2.778,0.9075086651118827,0.18422007258006176,98.60911613190386,25
39,2.838,0.9043828204616602,0.18476649076101564,98.57880737018057,25
40,2.898,0.9012514153922335,0.18527324078179974,98.54850565288235,25
41,2.958,0.898115058747532,0.18578186158734822,98.51817073866897,25
42,3.018,0.8949831413479521,0.18626980940250285,98.48788465707578,25
43,3.078,0.8918545172276879,0.18680407447935793,98.45757160951355,25
44,3.135,0.8888846194474495,0.1872533503214761,98.42884800630712,25
45,3.195,0.8857667555420987,0.18771815078334758,98.39867316498741,25
46,3.252,0.8827993805200196,0.18820233542530668,98.36993081245753,25
47,3.312,0.8796902507370478,0.1887613204719898,98.33971334283868,25
48,3.375,0.8764321101692645,0.1893174847293575,98.30805962561642,25
49,3.432,0.8734808721094272,0.1897738838535113,98.27944717857658,25
50,3.498,0.8700509029331851,0.19019549504475922,98.2463301595951,25
51,3.564,0.8665957951527059,0.1905432618854614,98.21310574002794,25
52,3.63,0.863148661987303,0.1909111632241421,98.17991879581479,25
53,3.693,0.8598789115001004,0.19132924163965212,98.1483220252586,25
54,3.753,0.8567634824017271,0.19181598548515372,98.1181413952674,25
55,3.81,0.853802470010271,0.19218560431696577,98.08954384195573,25
56,3.867,0.8508358858639132,0.1925935774768241,98.06087900632075,25
57,3.93,0.84755527735384,0.19312862318899704,98.0291057046521,25
58,3.993,0.8442689669030372,0.1936298351621827,97.99733010828741,25
59,4.056,0.8409898353533117,0.19422559340794623,97.96550011553882,25
60,4.122,0.8375282560635207,0.19476072280045129,97.93208284708993,25
61,4.185,0.8342064938714208,0.19519950446799875,97.90013889911896,25
62,4.251,0.8307364199491467,0.19566030666346407,97.86673546926554,25
63,4.314,0.8274332052426108,0.19610397984409708,97.83490505244109,25
64,4.383,0.8238210610030429,0.19656033019798502,97.80010356591974,25
65,4.443,0.8206884272586334,0.19690265922697153,97.76993535594377,25
66,4.503,0.8175601876294097,0.19726955432385845,97.73977739267907,25
67,4.566,0.8142862488391002,0.1976919513355935,97.7081505143439,25
68,4.632,0.8108570626991399,0.1981329702649572,97.67502296875453,25
69,4.695,0.8076090404440637,0.19864268130493795,97.6434812190101,25
70,4.755,0.8044972841782414,0.19903245048197146,97.61341035874064,25
71,4.821,0.801067370975242,0.19951294452741714,97.58024456220056,25
72,4.884,0.7977968818130817,0.2000130384667182,97.54857014183322,25
73,4.95,0.7943638329043152,0.20044362589261797,97.51542648371672,25
74,5.01,0.7912391359878741,0.20086213623517507,97.48524984882596,25
75,5.085,0.7873395302443662,0.20131379648421532,97.44762553067656,25
76,5.145,0.7842138225977888,0.20161336645749425,97.41752933657736,25
77,5.205,0.7810807481387129,0.2019201298183833,97.38738177538548,25
78,5.313,0.775451443148886,0.20256323073694396,97.3331198851187,25
79,5.379,0.7720068922540487,0.20305565305940848,97.29985063415201,25
80,5.466,0.7674643585494425,0.20373014736631792,97.25595968020478,25
81,5.568,0.762138554473309,0.20450921332975552,97.20451178330484,25
82,5.652,0.7577386955680127,0.20502445641905936,97.16216026451698,25
83,5.724,0.7539686296764757,0.20545931624372876,97.12587186408295,25
84,5.796,0.7502157601780935,0.20590463017473307,97.08968499989241,25
85,5.859,0.7469514559442236,0.20632585559491914,97.05812023528652,25
86,5.931,0.7432028315857881,0.20672117128315487,97.02199600506727,25
87,5.997,0.739790915271393,0.2071822139731815,96.98896128437684,25
88,6.06,0.7365262544950303,0.20755271533888084,96.95743333345753,25
89,6.132,0.7328076932088018,0.20798821201084924,96.92147188782492,25
90,6.195,0.7295501927701047,0.20844154932896827,96.88992296613844,25
91,6.252,0.7266053803881386,0.20890149169784547,96.86134767305612,25
92,6.312,0.7235065968054859,0.20943282356224743,96.83122603515055,25
93,6.378,0.7201162817280399,0.2100348859371699,96.79818854291761,25
94,6.438,0.7170456836003373,0.2106668975014668,96.76812476086661,25
95,6.498,0.7139792529457376,0.21136199673350925,96.73800171165483,25
96,6.558,0.7108882046632162,0.21199812217156846,96.70780442797685,25
97,6.618,0.7077441752808225,0.21227072866538088,96.67760714429888,25
98,6.678,0.7046001458984288,0.2125433351591933,96.6474098606209,25
99,6.738,0.701456116516035,0.21281594165300577,96.61721257694292,25
100,6.795,0.6984692886027609,0.21307491782212756,96.58852515744884,25
101,6.855,0.6953252592203671,0.21334752431594003,49.96980271632203,25
102,6.921,0.6918675484471479,0.2136878487590707,49.9365664373651,25
103,6.984,0.688573655107412,0.21393406069125964,49.90492670970679,25
104,7.044,0.6854520767160265,0.21423435016776962,49.874856381723994,25
105,7.107,0.6821810913765523,0.21460182065904113,49.84329038565005,25
106,7.173,0.6787626076110238,0.21499865717983185,49.81026516852883,25
107,7.233,0.6756574487396321,0.21528954927656843,49.78030513952643,25
108,7.296,0.6724016693857571,0.21550462410845822,49.748922736467726,25
109,7.359,0.6691494231364974,0.21563254233159945,49.71759226648999,25
110,7.425,0.6657358463605785,0.215819054472583,49.684712789146836,25
111,7.485,0.6626366269083156,0.2159429464546309,49.65486194262889,25
112,7.548,0.6593922114228667,0.21614748252401333,49.623556462148784,25
113,7.614,0.656009517660703,0.21646435546042078,49.5908124439741,25
114,7.677,0.6527883941309831,0.21686362609998394,49.559539485466054,25
115,7.74,0.6495513193306943,0.2172373719695539,49.528184577766055,25
116,7.803,0.6463203054770226,0.2176977421683186,49.49679723745442,25
117,7.863,0.6432521101370818,0.21815735236536193,49.46694169342509,25
118,7.926,0.6400322948874987,0.21867088931174578,49.4355744245408,25
119,7.989,0.6368369383639143,0.21925443353295565,49.40428592096501,25
120,8.049,0.6338023567656228,0.2198471822042229,49.37449756343932,25
121,8.115,0.6304746622232897,0.22054215479484512,49.341740822159764,25
122,8.187,0.6268666997307772,0.22140008049200244,49.30600602730866,25
123,8.244,0.6240179375951953,0.22216526226158914,49.27762770999177,25
124,8.304,0.6209958408315261,0.22289644391225902,49.247728242515294,25
125,8.367,0.6178308828746404,0.22366216406051914,49.216388122473944,25
126,8.43,0.6146370235645376,0.22434004180403125,49.18499209255384,25
127,8.493,0.6114328799736395,0.22503092996287122,49.153514280178385,25
128,8.556,0.6082225023200052,0.22576532779178476,49.121937121350435,25
129,8.625,0.6047322968744739,0.22662109024468774,49.08743816820027,25
130,8.685,0.6017116970507118,0.22736886221567879,49.05752276442822,25
131,8.748,0.5985392135978279,0.2280869561263325,49.02620523569276,25
132,8.814,0.5951951968410857,0.2287835133693929,48.9933441621384,25
133,8.877,0.5920099640426463,0.22944515875722984,48.96202351259821,25
134,8.94,0.588830553343043,0.23008644681088491,48.93076549686369,25
135,9.0,0.5858237444282532,0.23077957998029824,48.90101723573196,25
136,9.063,0.5826769527273201,0.2314947552388787,48.86986419312088,25
137,9.129,0.5793769943069859,0.23226534732078757,48.837176277003174,25
138,9.189,0.5763920682571266,0.2329992613679286,48.80750378323938,25
139,9.252,0.5732506258903126,0.23367896566166252,48.776433324941486,25
140,9.312,0.5702382686546368,0.2342355940086413,48.74682786612864,25
141,9.378,0.5669390315563279,0.23486417431697842,48.71433293600815,25
142,9.441,0.563791463740235,0.23546739698991148,48.683321898776406,25
143,9.507,0.5605131215972647,0.23616075185361432,48.650876389587246,25
144,9.576,0.5570606409508094,0.23685073805837037,48.61684356866953,25
145,9.639,0.5538998104522083,0.23738717314606492,48.58582499295555,25
146,9.708,0.5504296081493483,0.23792949141400208,48.55184612550939,25
147,9.807,0.545453575934302,0.23866886414329316,48.50314988331543,25
148,9.879,0.5418154839789836,0.23910977916708034,48.467695722070346,25
149,9.951,0.5381770488238795,0.23964772338941848,48.43215660005699,25
150,10.026,0.5344002171819748,0.24016622728696957,48.39525815516548,25
151,10.098,0.5307857197405401,0.2406751698804787,48.3598971782499,25
152,10.167,0.5273452032971255,0.24119862047167434,48.326124485002,25
153,10.233,0.5240760463364907,0.241772032263967,48.29388247301028,25
154,10.302,0.5206744940446775,0.2423882797105245,48.26025816369844,25
155,10.368,0.5174315159589166,0.2430244298010648,48.2281075494722,25
156,10.437,0.5140494351623762,0.243759056397496,48.19445749550159,25
157,10.506,0.5106528263033324,0.2444687443357168,48.16074976412708,25
158,10.575,0.5072745603149167,0.2451864660299062,48.12714630480394,25
159,10.641,0.5040582777859954,0.24589615969572826,48.095066936951106,25
160,10.71,0.5007006869887698,0.2466471593349003,48.061547387079486,25
161,10.776,0.4974980961941512,0.24746234466074477,48.029397236563554,25
162,10.842,0.4943136151841509,0.24830052002461594,47.99732241725946,25
163,10.911,0.4909745372574819,0.2491698213867833,47.96373998144378,25
164,10.98,0.4876476202495107,0.2500611492964607,47.93019679616235,25
165,11.049,0.484317079990127,0.25099908725121767,47.89655221718601,25
166,11.121,0.48085977909447547,0.25200767343262254,47.86150317401105,25
167,11.19,0.47755487749047437,0.25305624943658567,47.8278127152342,25
168,11.265,0.47401547424411306,0.25429376628942035,47.79131585288877,25
169,11.331,0.4709043644370592,0.2553558733282958,47.759276418098054,25
170,11.397,0.46781384677058613,0.2564906608518815,47.727205889692186,25
171,11.463,0.46474770118450986,0.25767951659636673,47.69515910582587,25
172,11.535,0.4614061506623739,0.2589858849345851,47.660196963484935,25
173,11.601,0.45835558890828454,0.26023748935482904,47.62809399761219,25
174,11.673,0.4550143319950304,0.26161267027037477,47.5929696007999,25
175,11.742,0.45179398089734074,0.262842991196895,47.55940644128616,25
176,11.811,0.44854073272014505,0.2640162136383975,47.525773103182686,25
177,11.88,0.44526097600376363,0.2650970639195726,47.492172205061806,25
178,11.946,0.442115202893999,0.26614652172736364,47.459948459725965,25
179,12.012,0.4389883312992774,0.2672485117437903,47.42773006303124,25
180,12.084,0.4356099750744685,0.2685242320554776,47.392618393970224,25
181,12.15,0.43250726098316533,0.2696769587115949,47.360434864330884,25
182,12.216,0.4294473023993822,0.2709017378213533,47.32834064452372,25
183,12.285,0.42624298227047597,0.2721933464691641,47.294729667632666,25
184,12.354,0.423070071182264,0.27357352698868964,47.26108505442481,25
185,12.423,0.4198587963580094,0.2748838502915158,47.22738781608259,25
186,12.492,0.41663249447230666,0.2762018326072521,47.193583011513084,25
187,12.561,0.4134030049317457,0.27752164123219264,47.159754900586236,25
188,12.636,0.4099280873123006,0.27901349887828697,47.12305249715278,25
189,12.708,0.40658068112418794,0.28042849096481925,47.0877936865794,25
190,12.783,0.40306068764484976,0.28182265025721936,47.051063085226055,25
191,12.855,0.3996498734892442,0.2830920073394656,47.01577119934201,25
192,12.927,0.3962033153734996,0.2842723555550938,46.98045552874092,25
193,12.996,0.39286852782547604,0.28533576016890305,46.946554031773225,25
194,13.071,0.38920851556729524,0.28642177907288374,46.909620505762604,25
195,13.146,0.3855634878946642,0.28749837424029245,46.87279605657906,25
196,13.221,0.38186846725531437,0.2884652526400744,46.83585171644238,25
197,13.293,0.3782913424494279,0.2893368416348858,46.8002883372324,25
198,13.365,0.3747388274228912,0.29030657516597164,46.76472038947082,25
199,13.437,0.3712116446365807,0.2913584739016109,46.72916394696973,25
200,13.509,0.36766421038967634,0.2923488272501452,46.69359222523469,25
201,13.584,0.3639419484386525,0.2933076469485419,46.656492096041546,25
202,13.656,0.3603750459832772,0.2941942318045227,46.62096930908676,25
203,13.734,0.35651898720873315,0.2951572299714007,46.58253258598337,25
204,13.803,0.35312557482449836,0.2961182736110398,46.54846058124613,25
205,13.878,0.34943561591572414,0.29715732180732707,46.51142643530028,25
206,13.953,0.345765334501338,0.2982961790179255,46.47433180785387,25
207,14.031,0.3419907878821121,0.2995634314605279,46.43584957398287,25
208,14.112,0.3380378524437926,0.30077833862914527,46.3958828864228,25
209,14.193,0.3340704081221867,0.3019380651685709,46.355928673893615,25
210,14.271,0.3302884750800662,0.30312678923168723,46.31755682460216,25
211,14.358,0.32606028115605057,0.3044070727786711,46.274783054556096,25
212,14.43,0.32252595335284207,0.30540055093853535,46.23928670998963,25
213,14.508,0.3187193551260907,0.30658597445078495,46.20077051198254,25
214,14.586,0.31489550250986065,0.30775980621676186,46.16217072810708,25
215,14.664,0.31107083045861833,0.3089151842707607,46.12360033342796,25
216,14.739,0.3073659177802715,0.3099742612661301,46.08643912943045,25
217,14.814,0.30368919287314833,0.3111462735529466,46.04924149804982,25
218,14.889,0.30002120972274926,0.31231042923962893,46.01211242298237,25
219,14.967,0.2962357455019027,0.31355667320936925,45.973606304405834,25
220,15.042,0.29259137358364407,0.3147357983039273,45.936591896029356,25
221,15.117,0.28893082494366096,0.3159170614734648,45.89947476459785,25
222,15.195,0.28513704861131217,0.3171403694472931,45.86096354152334,25
223,15.27,0.2815330171695549,0.318416130207398,45.823995270848194,25
224,15.345,0.2779264194144263,0.3196531375530342,45.78709310687085,25
225,15.423,0.2741788438056339,0.3209283157901345,45.748758156987726,25
226,15.498,0.27057580180980884,0.32220758815262135,45.711788345229785,25
227,15.573,0.2669503154622648,0.3234478936692304,45.67476497739623,25
228,15.648,0.26333896275350965,0.324695352707097,55.637812267953954,25
229,15.723,0.2597543096568883,0.32596847934681294,55.6009665222014,25
230,15.801,0.2560767683118709,0.32737547284687957,55.56276649391663,25
231,15.876,0.2524857685107013,0.32862820778123925,55.52592576642292,25
232,15.954,0.24872761834719465,0.32984480849311015,55.48764470522507,25
233,16.029,0.2451285721459612,0.3310130112153905,55.45092780277511,25
234,16.104,0.2415454187804869,0.332179606693421,55.41431081171647,25
235,16.182,0.23780964941748062,0.3333913876721726,55.37617552088066,25
236,16.254,0.2343621286533663,0.33450422326714346,55.340990375860656,25
237,16.332,0.2306058448311929,0.3356623865079294,55.3028334010895,25
238,16.407,0.22701156986182838,0.3368677060886172,55.266071062838364,25
239,16.482,0.22340428022672199,0.338082462781918,55.229210530437356,25
240,16.557,0.2197670011340343,0.3392235627171024,55.192313256771286,25
241,16.632,0.21610646140519432,0.34031174972558886,55.155372544079896,25
242,16.707,0.21248658276575255,0.3414764535150928,55.11853566044018,25
243,16.785,0.2086969060255457,0.34266685538836145,55.08011331171382,25
244,16.86,0.2050516906578499,0.3437504063019652,55.04327506368889,25
245,16.938,0.20125160388827285,0.3448775521243321,55.00490722265102,25
246,17.013,0.19760254656343781,0.3459200708873341,54.96811885186606,25
247,17.091,0.19379584338614492,0.34697584117206276,54.92983630821752,25
248,17.166,0.19206244604050654,0.35035572653081853,54.893026170093925,25
249,17.241,0.19032904869486816,0.35373561188957436,54.856216031970334,25
250,17.319,0.18852631545540427,0.35725069266268034,54.81793348832179,25
251,17.397,0.18672358221594035,0.36076577343578636,64.77965094467325,25
252,17.472,0.1850341817520719,0.36418607761428107,64.74273634583471,25
253,17.544,0.1835007176105207,0.3674981973371251,64.70737709163785,25
254,17.622,0.18178564744811104,0.3710655390222585,64.6690445751603,25
255,17.703,0.17991779313525805,0.37474897476388175,64.62911282419066,25
256,17.781,0.17806825694934908,0.378274174013372,64.59063486400227,25
257,17.853,0.17644863140783246,0.38155603520000814,64.55521243805028,25
258,17.928,0.17481890834372088,0.3849817484551019,64.51843330727708,25
259,18.0,0.1733503383325832,0.3882942997594431,64.48324295870012,25
260,18.078,0.17184775317229375,0.39193550775448377,64.44503300382914,25
261,18.153,0.17036054154614047,0.3954123658103512,64.4083308976974,25
262,18.228,0.16882875576265316,0.39887319221404166,64.37160904345544,25
263,18.306,0.1672741105679631,0.40247690010485854,64.33349066817553,25
264,18.384,0.16564390798940934,0.40606809563575547,64.2952497904672,25
265,18.459,0.1641152667586322,0.4095440105451743,64.25844770993632,25
266,18.54,0.1625368687648704,0.41331259362764633,64.21879874889812,25
267,18.615,0.16114337804871445,0.4168435525199391,64.18200445758113,25
268,18.693,0.1595803252204198,0.4204805383045794,64.14366918656579,25
269,18.768,0.15813870989247403,0.4240169372490025,64.10672791230945,25
270,18.843,0.15679766650663665,0.42759856920286987,64.06975137623816,25
271,18.921,0.1553945980968135,0.4313053898572551,64.0313851473389,25
272,18.999,0.15405719904058773,0.43505073430762414,63.99293257884108,25
273,19.077,0.15273425959229692,0.43881432258094516,63.95440085751539,25
274,19.152,0.1513670938453701,0.44241699635938403,63.91723933919536,25
275,19.227,0.14996456942465242,0.44599195302949113,63.88016184762075,25
276,19.308,0.1484309905619938,0.4498345093964803,63.8401832418818,25
277,19.386,0.14705337781682973,0.45355859969825296,63.80177059509149,25
278,19.467,0.14564008425115788,0.4574542862355787,63.761748194872006,25
279,19.548,0.14421810365432008,0.4613359457002118,63.72179109568591,25
280,19.626,0.1429354153575172,0.4650906819576501,63.68339725892437,25
281,19.707,0.1415112644818273,0.4689578749369326,63.643522279455276,25
282,19.785,0.14014673805458971,0.4726797938063019,63.605151616760445,25
283,19.869,0.1387840030039474,0.4767377599680459,63.56375532835736,25
284,19.95,0.1373967704390177,0.4806304988535805,63.52380711620951,25
285,20.031,0.13605472414953737,0.48452620945749764,63.483936592561285,25
