,t,x,y,energy,sight
0,0.0,0.8503628324057416,0.0865311167854822,99.99997492765057,25
1,0.798,0.8919355492831567,0.08655926925036884,99.60090947862885,25
2,0.849,0.8945848278286789,0.08659063394852834,99.57545290773801,25
3,0.903,0.8973947726352177,0.08670506671884513,99.54845435456626,25
4,0.957,0.9002107770749734,0.08673405908720161,99.52143097099975,25
5,1.011,0.9030284945131429,0.08678700638673724,99.49439439591758,25
6,1.062,0.9056824669151202,0.0868704878414712,99.46890057163736,25
7,1.116,0.9084777941310002,0.08704538052367797,99.44197549613428,25
8,1.167,0.9111215698254357,0.087182494635432,99.41653259129835,25
9,1.221,0.9139055914627164,0.08740508025528938,99.38965799643854,25
10,1.269,0.9163884438723924,0.08753271973062234,99.36574675729878,25
11,1.32,0.9190313618115604,0.08766216517411592,99.34031180661263,25
12,1.377,0.9219683862236044,0.08786516050391645,99.31197000715623,25
13,1.434,0.9249170873860832,0.08799626116060652,99.28357967677262,25
14,1.491,0.9278603139535486,0.0880781853362483,99.25523573105126,25
15,1.542,0.9304948012621036,0.08819394632487162,99.22985874297747,25
16,1.59,0.9329744931357601,0.08828300852727282,99.2059784820767,25
17,1.641,0.9356134760101984,0.08837688513629552,99.18057830873842,25
18,1.695,0.9384193036024623,0.08842094541747926,99.15361879825427,25
19,1.746,0.9410785627895093,0.08850853106305107,99.1280903108226,25
20,1.8,0.9438860205675693,0.08857407485566374,99.10111768505085,25
21,1.851,0.9465461171334295,0.08870985148519159,99.07557090446376,25
22,1.902,0.9492052298701175,0.08888576220401948,99.05001538461771,25
23,1.953,0.9518711244904692,0.08911415031591255,99.02439116202791,25
24,2.007,0.9546929042029169,0.08934392626615403,98.99727199710402,25
25,2.058,0.9573696766299499,0.08949398470490236,98.97161375565913,25
26,2.106,0.959903600513436,0.08958856184366426,98.94738535063036,25
27,2.154,0.9624480481026122,0.08969643061464537,98.92308625913819,25
28,2.208,0.9653070119441812,0.08989937502132747,98.89574284905619,25
29,2.262,0.9681523024996735,0.09014217392692724,98.86846680926041,25
30,2.322,0.9713223470616257,0.09033138158672505,98.83814241836394,25
31,2.379,0.9743304206211144,0.09058357739214289,98.80932320524758,25
32,2.433,0.9771925705379951,0.09075398666198717,98.78197300736186,25
33,2.49,0.980202003880718,0.09101168509555152,98.75314214926647,25
34,2.544,0.9830493954227688,0.09119477887933101,98.72588120754523,25
35,2.604,0.9862139770714731,0.09139062618573832,98.69558913660603,25
36,2.658,0.9796776521645064,0.09160460757954286,98.66824437476339,25
37,2.721,0.9763285873766948,0.09178672989135647,98.63627869129124,25
38,2.778,0.9732880546486513,0.09190577434603436,98.60730437270192,25
39,2.838,0.9700754809004781,0.09205162969148081,98.57672272110433,25
40,2.898,0.9668699613036219,0.09219379294903411,98.54618723000401,25
41,2.958,0.9636664658142005,0.09229907167150761,98.51567379034393,25
42,3.018,0.9604694499351588,0.09236781868667564,98.48520815870125,25
43,3.078,0.9572880971891433,0.09248574143485425,98.45483351864576,25
44,3.135,0.9542707217613613,0.09263011970364346,98.42600022182805,25
45,3.195,0.9510889271434039,0.09270042146988267,98.39563176626254,25
46,3.252,0.948063206657434,0.09279954796146063,98.36675676590328,25
47,3.312,0.9448869914159687,0.09286226203325353,98.33642502623695,25
48,3.375,0.9415435358973057,0.09285837119097042,98.3045268964284,25
49,3.432,0.9385196634146267,0.09293691015478289,98.27566758599008,25
50,3.498,0.9350360502105353,0.09313170827731446,98.24233763172357,25
51,3.564,0.9315422668935115,0.09325731281070807,98.20896297326729,25
52,3.63,0.9280529561339742,0.09346703975897505,98.17559108236043,25
53,3.693,0.9247145445772382,0.09357810672417646,98.14371342724567,25
54,3.753,0.9215396524024989,0.09369403668702694,98.11338057579846,25
55,3.81,0.9185082065651509,0.09375261150792258,98.0844757009971,25
56,3.867,0.9154863556730234,0.09383718897555113,98.05562828170649,25
57,3.93,0.9121546850364662,0.09393227937789365,98.02379690657118,25
58,3.993,0.9088092470542719,0.09396788885328926,97.99188489061069,25
59,4.056,0.9054676465685505,0.09395048740615472,97.95999835752528,25
60,4.122,0.9019593204296923,0.09383433325800886,97.92653276753462,25
61,4.185,0.8985979704163141,0.09374782493437585,97.89451300416701,25
62,4.251,0.895067925063314,0.09366393801661795,97.86091433572639,25
63,4.314,0.8916923131726836,0.09350472611071273,97.82878640326417,25
64,4.383,0.8880008083723038,0.09322774827559267,97.79359436358983,25
65,4.443,0.8847879478723222,0.09302524230988446,97.76299125236002,25
66,4.503,0.881586439901157,0.09285440724410571,97.73247245120699,25
67,4.566,0.8782322589215876,0.09268865207686691,97.70047949707329,25
68,4.632,0.8747005465409396,0.0925492525308601,97.66685893760824,25
69,4.695,0.8713282818902115,0.09235788037173315,97.63474171929495,25
70,4.755,0.8681121076694145,0.09224734687363727,97.60414605165802,25
71,4.821,0.8645642299219217,0.0921070846500516,97.57042189654274,25
72,4.884,0.8611794197972408,0.09204538713601891,97.53825551329929,25
73,4.95,0.8576333224897101,0.09189058530153696,97.50453887605187,25
74,5.01,0.854420744471694,0.0917222818289441,97.47395018091433,25
75,5.085,0.85039600400552,0.09154409755881798,97.4356666107154,25
76,5.145,0.8471880679431489,0.09144167355797295,97.40512535785862,25
77,5.205,0.8439833676297337,0.09143812185203837,97.37461526325666,25
78,5.313,0.8382228266698188,0.09131461441156005,97.31973932838936,25
79,5.379,0.8347048647579326,0.09128975337126988,97.28622380995176,25
80,5.466,0.8300719156357015,0.0911490756569214,97.24205926952018,25
81,5.568,0.8246557709272506,0.09112268687895192,97.19039553195634,25
82,5.652,0.820203146000342,0.09097265044877959,97.14788255892147,25
83,5.724,0.8163896080141241,0.09092556444553555,97.11147405548388,25
84,5.796,0.8125800109395858,0.09078800224077178,97.07507674406804,25
85,5.859,0.8092454659764338,0.09069727607438986,97.04322775864867,25
86,5.931,0.8054509487043662,0.0906251493301705,97.00693846131709,25
87,5.997,0.8019830495563591,0.0905525210750916,96.9737390399292,25
88,6.06,0.7986817542186413,0.09050117983827263,96.94210819487904,25
89,6.132,0.7949153430956309,0.09036034291551379,96.90598631742871,25
90,6.195,0.7916179974523463,0.0903287934951875,96.87438233935349,25
91,6.252,0.788633321107759,0.09038015333137639,96.84577758282339,25
92,6.312,0.7854815776660553,0.09039623080614709,96.81560616235531,25
93,6.378,0.7820334676823671,0.09051405770209672,96.78252537801026,25
94,6.438,0.778891218778216,0.09068493581928304,96.75238527099295,25
95,6.498,0.7757441177952074,0.09094360776284412,96.722175903353,25
96,6.558,0.7725854017289782,0.09114387675430183,96.69191952941043,25
97,6.618,0.7694172851762778,0.09128254676360267,96.66162416987413,25
98,6.678,0.7662550653420571,0.09141015549256619,96.63136949110002,25
99,6.738,0.7631043909200328,0.09155287437422102,96.60118449783809,25
100,6.795,0.7600960831017723,0.09161536955901012,96.57242717372971,25
101,6.855,0.7569409130946557,0.09176974167159635,96.54220993078464,25
102,6.921,0.7534886087728524,0.09203719411040535,96.50904897918065,25
103,6.984,0.7502006963165073,0.09218955105497562,96.47748375959749,25
104,7.044,0.7470589258167838,0.0922925651313927,96.4473656227221,25
105,7.107,0.7437741596703109,0.09246067914888471,96.41581560440103,25
106,7.173,0.7403249255772196,0.0926604531204826,96.38270351134776,25
107,7.233,0.737195722590119,0.09280378788390721,96.35265561356528,25
108,7.296,0.7339110617507771,0.09296165190096753,96.32110951947972,25
109,7.359,0.7306209661901668,0.09304905901945995,96.28954547841104,25
110,7.425,0.7271877422768644,0.0932089689493967,96.25654902418083,25
111,7.485,0.7240542474749339,0.0932691059741293,96.22649096457107,25
112,7.548,0.720766617839144,0.09323361222739876,96.194948908711,25
113,7.614,0.7173154693707953,0.0932439888752984,96.16186145867474,25
114,7.677,0.714035135076361,0.09315138330423234,96.13035895508298,25
115,7.74,0.7107639189805219,0.09296361891033823,96.09888871249171,25
116,7.803,0.7074881361743773,0.09267253979830029,96.06734109831478,25
117,7.863,0.7043669569829605,0.0924055450451742,96.03729259828016,25
118,7.926,0.7010695821769124,0.09218428503946717,96.00564194261172,25
119,7.989,0.6977789092296871,0.09190516066572171,95.97400600790866,25
120,8.049,0.6946243560489578,0.09172024411999236,95.94378221054366,25
121,8.115,0.6911581141800585,0.09144492568351623,95.9105283945782,25
122,8.187,0.6873980670121109,0.09105861980497607,95.87433742153165,25
123,8.244,0.6844135765136754,0.09081586754590207,95.84567360261453,25
124,8.304,0.6812771391359529,0.09054223205585685,95.81552415439863,25
125,8.367,0.6779891380808658,0.09026351872142822,95.78390548092655,25
126,8.43,0.6747200719381251,0.08990315611347767,95.7523567238454,25
127,8.493,0.6714596979086969,0.0895020331632742,95.72083300299933,25
128,8.556,0.6681967034184477,0.0890637331726889,95.68926228238199,25
129,8.625,0.6646323163092116,0.08858398159992399,95.6547445001735,25
130,8.685,0.6615411733102327,0.08818358171009136,95.62479590949185,25
131,8.748,0.6582983085541096,0.08783202634475815,95.59341997376343,25
132,8.814,0.6548852192466185,0.08750860473517581,95.56047835041213,25
133,8.877,0.6516457919992017,0.08713243941731363,95.5291067059351,25
134,8.94,0.6484163849863545,0.08674429447090046,95.49778975170857,25
135,9.0,0.6453385533595151,0.086447740153295,95.46800040528768,25
136,9.063,0.6421126425347674,0.086094929965816,95.43673146781474,25
137,9.129,0.6387596705291012,0.08563446474484167,95.40407103727583,25
138,9.189,0.6357015170606208,0.08530447769806129,95.3743852426554,25
139,9.252,0.6324687753356463,0.08501524902997526,95.34311305469397,25
140,9.312,0.6293875058802929,0.08481640349070399,95.31335190971794,25
141,9.378,0.6259913822368053,0.0845877865461691,95.28056752666456,25
142,9.441,0.6227610336988627,0.08428358843843221,95.24930183122106,25
143,9.507,0.6193737970477159,0.08390522153649774,95.21648868798053,25
144,9.576,0.6158302464376119,0.0834553856551043,95.18212796032415,25
145,9.639,0.612594848688274,0.0830665562849098,95.15077241663855,25
146,9.708,0.6090521166406819,0.08264880273805267,95.11644184097499,25
147,9.807,0.6039390569964028,0.08211631378892051,95.06704128197143,25
148,9.879,0.6002110231758685,0.08175558442046449,95.03107043089886,25
149,9.951,0.5964804496724964,0.08149211690485533,94.99513529183768,25
150,10.026,0.5925786389099099,0.08131753642295478,94.95763871918828,25
151,10.098,0.588847615124007,0.08122953134932591,94.92175352529317,25
152,10.167,0.5852548898863326,0.08117504488609024,94.88725743966984,25
153,10.233,0.5823691339598815,0.07930828372032658,94.85426118385621,25
154,10.302,0.5793522073095009,0.07735666977430095,94.81976509823288,25
155,10.368,0.5764664513830497,0.0754899086085373,94.78676884241925,25
156,10.437,0.5734495247326692,0.07353829466251165,49.96550391437667,25
157,10.506,0.5704902692759164,0.07151516776131162,49.931061690452836,25
158,10.575,0.5675261759696235,0.06952452768691181,49.89671046644795,25
159,10.641,0.5647034492329259,0.06759279024616362,49.86381966356771,25
160,10.71,0.5617740077144204,0.06556374698002834,49.82951316304995,25
161,10.776,0.559022003439833,0.06357083580440549,49.79676707575056,25
162,10.842,0.5562463336058269,0.06163713903761729,49.76411697566542,25
163,10.911,0.5533058745906174,0.05965286145883858,49.72991396750237,25
164,10.98,0.5503269723859082,0.0577142752118993,49.69566741402136,25
165,11.049,0.5473389942815533,0.05580179371566052,49.661462654174514,25
166,11.121,0.5442409205709033,0.05379119147902199,49.6258254326455,25
167,11.19,0.5412662256796901,0.05189115835034237,49.59173521348769,25
168,11.265,0.5379693406615579,0.049901775379607875,49.554591394207975,25
169,11.331,0.5351149166507052,0.04805503877515556,49.52183311425718,25
170,11.397,0.5322645805150625,0.046229783187751845,49.48917124229505,25
171,11.463,0.5294667692097444,0.044347546177985135,49.45659027122944,25
172,11.535,0.526464458507885,0.04221055280991924,49.42100506836782,25
173,11.601,0.5237351945428544,0.04021052337724433,49.38834979140268,25
174,11.673,0.5206874541074459,0.03811344820019119,49.35267286528017,25
175,11.742,0.5178055431812127,0.03605138131534541,49.31849343746155,25
176,11.811,0.5149890253232566,0.033912941341887534,49.28436086348066,25
177,11.88,0.5121814254969013,0.03178633327583054,49.250319523201775,25
178,11.946,0.5094859887679541,0.02974386243109301,49.2176755347497,25
179,12.012,0.5068095066171263,0.02769535784335255,49.18510465992675,25
180,12.084,0.5038350848680779,0.02555439345109155,49.14964980525773,25
181,12.15,0.501133127266829,0.023571290594608385,49.1171995182275,25
182,12.216,0.49846982165225445,0.021514506290173187,49.08466320110975,25
183,12.285,0.49566212843036983,0.01939522278384833,49.050649656830984,25
184,12.354,0.4929053949302558,0.01718505653089728,49.01653635065671,25
185,12.423,0.49018606724382724,0.014938230050536702,48.98246060824658,25
186,12.492,0.4874308728811395,0.018512840505765474,48.94839136638809,25
187,12.561,0.4846637123407406,0.020697117460140718,48.91432898964429,25
188,12.636,0.4816242742978213,0.023014196939706258,48.87736872806456,25
189,12.708,0.47863435593331066,0.025149986285631105,48.84185257451211,25
190,12.783,0.4755441199563486,0.02738855235494762,48.80493111336453,25
191,12.855,0.4726038771503899,0.029582747883455336,48.76945129198708,25
192,12.927,0.4696732702243847,0.03177258091234719,48.73403758876461,25
193,12.996,0.4668455096834051,0.03387432666222444,48.6999885396217,25
194,13.071,0.4637909387651762,0.03619715188320263,48.662928944678995,25
195,13.146,0.4608017229169671,0.03857788946245823,48.62597179639399,25
196,13.221,0.4577795280211734,0.040937142076978544,48.58893404708842,25
197,13.293,0.4549248534758209,0.043273788707161934,48.55332413200526,25
198,13.365,0.4521152114646546,0.04567257621227197,48.51768025059886,25
199,13.437,0.44923989405491416,0.04797810829468424,48.482093034848674,25
200,13.509,0.4463374628590703,0.05027730185147804,48.44639540002424,25
201,13.584,0.44338485375712866,0.05276713304173143,48.40917684690996,25
202,13.656,0.44049859891678506,0.055077867096876856,48.37351418612123,25
203,13.734,0.4374149367907788,0.0576380854745564,48.33486328452714,25
204,13.803,0.4346754261544946,0.05989076045478779,48.3006640596883,25
205,13.878,0.4316324067378404,0.06224068687004162,48.26355764407034,25
206,13.953,0.4285686989505389,0.06457009780147745,48.22642598984241,25
207,14.031,0.42532895062120313,0.06693195030217997,48.18776660554126,25
208,14.112,0.42192595798613713,0.06931465859162292,48.14767950983609,25
209,14.193,0.4185559158579794,0.07172632762232092,48.10765745002603,25
210,14.271,0.4152771891092194,0.07399100137370254,48.0691545973195,25
211,14.358,0.4115535335030366,0.0764300511926181,48.02616591543014,25
212,14.43,0.40850203449937583,0.07850521027244742,47.99054832729844,25
213,14.508,0.4052005514076139,0.08074464141516988,47.95201654422954,25
214,14.586,0.40184486745830916,0.08289610806873894,47.91350515877618,25
215,14.664,0.3985270127396034,0.08509604114179449,47.87502715710304,25
216,14.739,0.39535742877165714,0.08722253038457889,47.83809942181198,25
217,14.814,0.3922307105130186,0.08943192611466819,47.8010967005929,25
218,14.889,0.38912306983334377,0.09165186393001404,47.76415443571754,25
219,14.967,0.38590995578558646,0.09400442601464545,47.72566776637701,25
220,15.042,0.3828552946443148,0.09629655390734027,47.68872612953852,25
221,15.117,0.3797191974763986,0.09850800912879308,47.65166676880211,25
222,15.195,0.37641302027443957,0.10073641870525671,47.61314960929124,25
223,15.27,0.3732521210823726,0.10289731615288181,47.57614441004119,25
224,15.345,0.3700530630114584,0.10500989606974849,47.53910897147495,25
225,15.423,0.3666857569612312,0.10716503461157605,47.50052227719652,25
226,15.498,0.363496327000716,0.10931362785563259,47.46341020666593,25
227,15.573,0.3603768668268396,0.11154088842624499,47.42637914656651,25
228,15.648,0.35729277193688563,0.11383028763888688,47.38929698896701,25
229,15.723,0.35414115135914553,0.1160330181891096,47.352188398790126,25
230,15.801,0.35085213700101336,0.11830046535480174,47.31362127422162,25
231,15.876,0.3477531157950154,0.12054434393623563,47.27663433265024,25
232,15.954,0.3445537896674725,0.12293037548237802,47.238091328730896,25
233,16.029,0.34143676093738284,0.1251757164961936,47.20100547706172,25
234,16.104,0.33832303412187203,0.12745662023281365,47.16380295562422,25
235,16.182,0.33507018650032183,0.1297936627721633,47.125168750092335,25
236,16.254,0.33201084599619796,0.13185215618214882,47.08956935479019,25
237,16.332,0.32877548285931757,0.1341673662958284,47.05110750957982,25
238,16.407,0.32571522768435607,0.13648346754518986,47.014044940972475,25
239,16.482,0.3226271228138165,0.1387544014619278,46.97701236888821,25
240,16.557,0.31953590992793046,0.14100403309525214,46.940044239297485,25
241,16.632,0.31642273974482676,0.14324872574181585,46.902980847809744,25
242,16.707,0.3133248632373241,0.1455370246962202,46.865831996653135,25
243,16.785,0.31010722351887515,0.1478944044445789,46.827303741478154,25
244,16.86,0.3070656613502356,0.15024243184146574,46.79021213553124,25
245,16.938,0.30396368716466826,0.15274119831753102,46.751719498464176,25
246,17.013,0.30100407040875365,0.15518803082860316,46.71464289790557,25
247,17.091,0.2979316283114931,0.15772858619502456,46.676127580357765,25
248,17.166,0.29495024894832045,0.1601295303643627,46.63912873830276,25
249,17.241,0.2919378249988684,0.1624869807037714,46.60214736200345,25
250,17.319,0.2887735925545656,0.16492395574435925,46.56358642035141,25
251,17.397,0.2856091027857504,0.1673420078092715,46.52509788599071,25
252,17.472,0.28253963604092014,0.16964369718291275,46.488043728972364,25
253,17.544,0.2796078182211346,0.17187863325729846,46.4524499443123,25
254,17.622,0.27647930983788604,0.17437113612040847,46.41384983613119,25
255,17.703,0.27316834706830906,0.1768931744033754,46.37371233835098,25
256,17.781,0.26995348681506304,0.1792663964611091,46.33513834405332,25
257,17.853,0.26699896712364135,0.18148149974237332,46.29950520629013,25
258,17.928,0.26394687975327225,0.1838023474047875,46.26246592439597,25
259,18.0,0.26103716811784045,0.18604353863474649,46.22696009144417,25
260,18.078,0.25788720322404235,0.1884705484105423,46.18851040853001,25
261,18.153,0.2549134349102621,0.19088728358134907,46.151485873358276,25
262,18.228,0.25192766826173163,0.1932872289607081,46.114469161286166,25
263,18.306,0.24881065764732258,0.19577287051788902,46.075953966456396,25
264,18.384,0.2457325483365897,0.19828256405156947,46.037535958503526,25
265,18.459,0.24278456728191253,0.20070379427250296,46.000621029598896,25
266,18.54,0.23963270352013072,0.2033604995270053,45.960739108627365,25
267,18.615,0.23677432708564922,0.20588091892682595,45.92384945696343,25
268,18.693,0.23383388513384648,0.2085101577643746,45.88560464439968,25
269,18.768,0.23098186795763045,0.2109955014421195,45.84889357452326,25
270,18.843,0.22818100441166914,0.21356242998393565,45.81207866243073,25
271,18.921,0.22529588279888987,0.2162635146465981,45.77378466320783,25
272,18.999,0.22243102378047835,0.2189751594835644,45.7355387642496,25
273,19.077,0.21956570666083314,0.22166019196086043,45.697407502284726,25
274,19.152,0.21678678151054318,0.2242050312351303,45.66079161616049,25
275,19.227,0.21400578178062452,0.22674913678978373,45.62416910638001,25
276,19.308,0.21095506481462523,0.22946058569289227,45.584547359837586,25
277,19.386,0.20796696847987178,0.23203607798546222,45.54630028841853,25
278,19.467,0.20492976299691765,0.2347779749784015,45.506612933412,25
279,19.548,0.20186019673219713,0.2374610011346178,45.467020967443716,25
280,19.626,0.19898314711040982,0.24010293745128225,45.42902223480688,25
281,19.707,0.19592416067801882,0.24278925175117844,45.389467330553245,25
282,19.785,0.19302665807181202,0.24541370273101118,45.351447288473594,25
283,19.869,0.18995563525433778,0.2482730671673547,45.310592331663145,25
284,19.95,0.1868959277541339,0.2509519627210174,45.27106526085814,25
